1571240895.00
64.000000
-0.00
-0.00
-0.00
-0.00
-0.00
-0.00
-0.00
-0.00
-0.00
-0.00
0.00
0.01
0.01
-0.00
-0.03
-0.05
-0.05
0.00
0.13
0.36
0.66
1.01
1.37
1.72
2.06
2.40
2.79
3.24
3.80
4.42
5.06
5.66
6.20
6.68
7.15
7.68
8.31
9.14
10.09
11.04
11.88
12.56
13.14
13.76
14.65
15.96
17.91
20.32
22.90
25.38
27.58
29.57
31.68
34.32
37.81
42.54
48.15
54.10
59.83
64.97
69.58
74.14
79.34
85.71
93.76
103.00
112.62
121.73
129.77
136.75
143.30
150.75
157.77
166.64
177.95
191.79
206.97
220.57
228.25
225.36
208.53
176.87
132.76
80.05
23.07
-34.94
-92.44
-149.16
-205.23
-260.37
-313.74
-363.87
-409.83
-450.91
-486.50
-515.74
-537.23
-549.22
-549.96
-538.37
-514.21
-478.67
-433.88
-382.45
-327.02
-269.84
-212.63
-156.66
-102.95
-52.37
-5.90
35.58
71.43
101.35
125.50
144.38
158.69
169.15
176.37
180.75
182.57
182.07
179.51
175.23
169.65
163.18
156.15
148.81
141.30
133.69
126.02
118.33
110.69
103.16
95.80
88.68
81.83
75.25
68.95
62.95
57.25
51.86
46.78
42.03
37.59
33.45
29.61
26.07
22.81
19.83
17.11
14.67
12.48
10.54
8.83
7.35
6.07
4.97
4.05
3.27
2.62
2.09
1.65
1.30
1.01
0.79
0.61
0.47
0.37
0.29
0.23
0.18
0.15
0.14
0.13
0.14
0.15
0.17
0.20
0.23
0.27
0.31
0.35
0.39
0.44
0.49
0.54
0.59
0.65
0.70
0.76
0.82
0.89
0.97
1.06
1.15
1.25
1.37
1.50
1.64
1.80
1.99
2.22
2.46
2.72
2.98
3.23
3.47
3.70
3.96
4.29
4.70
5.19
5.75
6.34
6.94
7.53
8.12
8.75
9.46
10.27
11.18
12.15
13.13
14.07
14.96
15.83
16.74
17.78
18.99
20.28
21.47
22.31
22.53
21.94
20.52
18.38
15.68
12.57
9.08
5.06
0.32
-5.23
-11.48
-18.04
-24.32
-29.68
-33.67
-36.22
-37.69
-38.70
-39.84
-41.47
-43.48
-45.42
-46.76
-47.10
-46.46
-45.20
-43.95
-43.40
-44.20
-46.82
-51.34
-57.02
-62.14
-64.18
-60.59
-49.90
-32.56
-11.16
10.42
28.34
40.20
45.61
45.90
43.23
39.48
35.76
32.46
29.59
27.22
25.51
24.64
24.45
24.44
23.99
22.56
20.07
16.95
13.95
11.82
10.95
11.17
11.91
12.49
12.47
11.82
10.80
9.83
9.17
8.89
8.84
8.86
8.46
7.59
6.45
5.34
4.47
3.82
3.14
2.06
0.18
-2.84
-7.07
-12.41
-18.52
-24.92
-31.01
-36.25
-40.27
-43.04
-44.91
-46.52
-48.71
-52.21
-57.28
-63.37
-69.22
-73.07
-73.33
-69.17
-60.88
-49.79
-37.71
-26.27
-16.29
-7.65
0.39
8.64
17.47
26.59
35.26
42.61
48.11
51.62
53.46
54.04
53.82
53.22
52.66
52.64
53.58
55.65
58.52
61.48
63.63
64.31
63.31
60.87
57.35
52.96
47.62
41.14
33.51
25.08
16.51
8.55
1.73
-3.84
-8.41
-12.27
-15.70
-18.74
-21.32
-23.46
-25.32
-27.34
-30.00
-33.73
-38.76
-45.13
-52.78
-61.54
-71.10
-80.71
-89.17
-94.85
-96.19
-92.29
-83.29
-70.41
-55.40
-39.87
-24.74
-10.19
4.04
18.13
31.88
44.68
55.74
64.46
70.46
73.79
74.75
73.89
71.94
69.63
67.58
66.10
65.11
64.33
63.40
62.12
60.39
58.08
54.96
50.67
44.98
38.03
30.46
23.20
17.09
12.57
9.45
7.12
4.90
2.37
-0.53
-3.55
-6.46
-9.13
-11.61
-14.00
-16.36
-18.66
-20.87
-23.07
-25.47
-28.38
-32.07
-36.59
-41.69
-46.73
-50.74
-52.58
-51.26
-46.25
-37.83
-27.01
-15.30
-4.21
5.32
13.13
19.69
25.74
31.75
37.59
42.61
45.88
46.67
44.68
40.17
33.87
26.69
19.53
13.12
7.96
4.28
2.09
1.24
1.40
2.21
3.27
4.21
4.78
4.84
4.40
3.58
2.66
1.96
1.76
2.20
3.19
4.41
5.37
5.57
4.67
2.55
-0.63
-4.48
-8.56
-12.47
-15.99
-19.05
-21.84
-24.62
-27.72
-31.48
-36.12
-41.68
-47.84
-53.78
-58.32
-60.17
-58.40
-52.85
-44.31
-34.25
-24.25
-15.43
-8.18
-2.09
3.52
9.22
15.05
20.56
25.05
27.90
28.98
28.63
27.55
26.47
25.87
25.86
26.16
26.44
26.47
26.29
26.14
26.22
26.50
26.65
26.17
24.62
21.86
18.10
13.87
9.72
6.06
3.02
0.40
-2.14
-4.98
-8.37
-12.38
-16.87
-21.53
-25.96
-29.79
-32.82
-35.10
-36.97
-39.05
-42.00
-46.34
-52.17
-58.97
-65.64
-70.76
-73.03
-71.70
-66.95
-59.76
-51.58
-43.73
-36.94
-31.20
-25.96
-20.58
-14.70
-8.39
-2.03
3.88
8.99
13.04
15.87
17.32
17.27
15.83
13.44
10.93
9.31
9.40
11.53
15.35
20.03
24.55
28.08
30.28
31.29
31.53
31.46
31.38
31.33
31.15
30.69
29.82
28.64
27.30
26.03
24.99
24.18
23.44
22.47
20.91
18.55
15.41
11.81
8.35
5.60
3.86
2.93
2.10
0.32
-3.40
-9.58
-17.99
-27.54
-36.62
-43.53
-47.07
-46.92
-43.74
-38.87
-33.78
-29.58
-26.60
-24.34
-21.73
-17.38
-10.18
0.30
13.36
27.10
38.85
46.05
47.28
42.91
34.97
26.34
19.52
15.75
14.91
16.05
18.26
21.10
24.61
28.92
33.76
38.49
42.32
44.84
46.20
47.09
48.40
50.82
54.60
59.35
64.18
67.89
69.17
66.93
60.58
50.29
37.04
22.45
8.36
-3.71
-12.99
-19.64
-24.54
-28.96
-34.04
-40.51
-48.57
-57.94
-67.86
-77.20
-84.59
-88.59
-88.08
-82.53
-72.22
-58.18
-41.83
-24.60
-7.59
8.59
23.75
37.82
50.62
61.59
69.80
74.17
73.82
68.63
59.43
47.90
36.16
26.12
19.00
15.18
14.33
15.83
19.02
23.31
28.10
32.76
36.59
39.05
39.88
39.18
37.36
34.95
32.37
29.87
27.53
25.33
23.18
21.01
18.66
16.01
12.90
9.21
4.95
0.28
-4.51
-9.21
-13.80
-18.63
-24.29
-31.14
-38.96
-46.67
-52.71
-55.64
-54.97
-51.50
-47.03
-43.54
-42.18
-42.75
-43.77
-43.35
-40.09
-33.81
-25.58
-17.17
-10.27
-5.81
-3.67
-2.95
-2.52
-1.55
0.19
2.41
4.63
6.51
8.01
9.32
10.60
11.76
12.44
12.24
10.97
8.86
6.54
4.74
3.96
4.26
5.23
6.25
6.74
6.38
5.06
2.89
-0.12
-3.96
-8.69
-14.34
-20.82
-27.97
-35.60
-43.45
-51.25
-58.59
-64.89
-69.55
-72.08
-72.39
-70.97
-68.75
-66.82
-65.90
-65.84
-65.49
-63.12
-57.14
-46.96
-33.41
-18.53
-4.71
6.29
14.05
19.45
24.00
28.86
34.17
38.99
41.82
41.65
38.56
33.98
30.07
28.83
31.30
37.17
45.08
53.23
60.19
65.29
68.59
70.52
71.41
71.20
69.40
65.52
59.52
52.14
44.83
39.31
36.69
36.88
38.37
38.80
35.89
28.44
16.81
2.67
-11.62
-23.83
-32.26
-35.87
-34.19
-27.41
-16.57
-3.73
8.36
17.05
20.95
20.51
17.70
14.69
12.27
8.99
1.63
-12.95
-35.79
-64.67
-94.53
-119.45
-135.02
-139.90
-135.97
-126.94
-116.61
-107.40
-100.00
-93.89
-88.19
-82.36
-76.39
-70.53
-64.94
-59.43
-53.51
-46.67
-38.70
-29.98
-21.23
-13.36
-6.95
-2.06
1.84
5.48
9.50
14.09
18.93
23.30
26.43
27.78
27.14
24.72
21.04
16.82
12.88
9.93
8.38
8.13
8.64
9.12
8.92
7.81
6.07
4.23
2.63
1.14
-0.96
-4.68
-10.87
-19.83
-31.11
-43.64
-56.05
-66.85
-74.71
-78.55
-77.72
-72.21
-62.71
-50.56
-37.46
-25.01
-14.26
-5.55
1.46
7.45
13.09
18.77
24.56
30.28
35.77
40.88
45.53
49.58
52.76
54.81
55.50
54.90
53.31
51.23
49.13
47.22
45.46
43.60
41.32
38.44
35.00
31.23
27.45
23.98
21.08
18.87
17.31
16.23
15.30
14.10
12.17
9.19
5.03
-0.14
-5.88
-11.65
-16.91
-21.35
-24.86
-27.53
-29.58
-31.25
-32.91
-34.95
-37.89
-42.02
-47.22
-52.67
-56.96
-58.49
-56.09
-49.55
-39.80
-28.58
-17.80
-8.89
-2.34
2.18
5.58
8.80
12.48
16.82
21.60
26.35
30.59
33.98
36.36
37.79
38.49
38.66
38.49
38.07
37.48
36.85
36.35
36.15
36.27
36.48
36.41
35.66
34.03
31.64
28.91
26.35
24.30
22.80
21.56
20.11
18.08
15.33
12.00
8.40
4.88
1.66
-1.22
-3.89
-6.63
-9.70
-13.31
-17.49
-22.02
-26.54
-30.71
-34.36
-37.67
-41.13
-45.34
-50.87
-57.91
-66.11
-74.58
-81.94
-86.66
-87.46
-83.84
-76.30
-66.31
-55.84
-46.69
-39.89
-35.43
-32.45
-29.82
-26.68
-22.82
-18.59
-14.61
-11.35
-8.93
-7.06
-5.21
-2.81
0.64
5.46
11.85
19.79
29.11
39.42
50.19
60.73
70.36
78.53
84.88
89.23
91.62
92.22
91.23
88.86
85.35
80.96
75.93
70.54
64.99
59.40
53.78
48.07
42.16
36.00
29.64
23.20
16.87
10.84
5.18
-0.17
-5.46
-11.02
-17.14
-23.97
-31.38
-38.78
-45.16
-49.23
-49.79
-46.16
-38.58
-28.21
-16.84
-6.24
2.44
8.86
13.48
17.17
20.77
24.86
29.59
34.80
40.14
45.13
49.32
52.36
54.15
54.85
54.80
54.40
53.97
53.60
53.31
53.04
52.73
52.34
51.77
50.86
49.45
47.44
44.94
42.19
39.58
37.46
35.99
35.01
34.11
32.74
30.45
27.06
22.80
18.16
13.72
9.89
6.72
3.92
1.02
-2.40
-6.48
-11.05
-15.69
-19.94
-23.53
-26.49
-29.15
-32.01
-35.61
-40.32
-46.24
-53.11
-60.27
-66.65
-70.96
-71.97
-68.94
-61.96
-51.99
-40.66
-29.69
-20.41
-13.33
-8.14
-3.96
0.19
4.94
10.43
16.30
21.95
26.82
30.60
33.31
35.24
36.79
38.32
39.97
41.74
43.53
45.31
47.11
49.08
51.24
53.50
55.57
57.11
57.96
58.21
58.30
58.77
60.00
62.10
64.86
67.92
70.99
73.91
76.64
79.20
81.64
84.02
86.54
89.38
92.62
95.97
98.64
99.50
97.32
91.33
81.51
68.73
54.46
40.31
27.49
16.47
6.93
-1.91
-10.95
-20.75
-31.35
-42.23
-52.48
-61.08
-67.15
-70.30
-70.80
-69.58
-68.14
-68.05
-70.50
-75.87
-83.54
-92.03
-99.53
-104.48
-106.01
-104.03
-99.06
-91.81
-82.97
-73.17
-63.20
-54.14
-47.21
-43.42
-43.02
-45.27
-48.61
-51.34
-52.36
-51.63
-50.01
-48.76
-48.76
-50.13
-52.18
-53.86
-54.32
-53.19
-50.68
-47.30
-43.43
-39.20
-34.49
-29.13
-23.11
-16.66
-10.14
-3.94
1.68
6.61
10.85
14.49
17.72
20.79
23.92
27.07
29.89
31.73
31.89
29.93
25.81
19.97
13.07
5.77
-1.40
-7.96
-13.36
-16.97
-18.23
-16.88
-13.27
-8.25
-2.99
1.50
4.79
7.09
9.19
11.98
16.11
21.68
28.18
34.81
40.66
45.13
48.00
49.39
49.57
48.77
47.12
44.69
41.68
38.48
35.64
33.55
32.23
31.23
29.81
27.29
23.44
18.58
13.38
8.52
4.32
0.78
-2.32
-5.15
-7.71
-9.84
-11.41
-12.39
-12.86
-12.93
-12.64
-12.09
-11.46
-11.17
-11.65
-13.20
-15.75
-18.82
-21.86
-24.52
-26.98
-29.82
-33.77
-39.26
-46.13
-53.62
-60.58
-65.92
-68.90
-69.39
-67.90
-65.27
-62.43
-59.99
-58.06
-56.23
-53.84
-50.36
-45.63
-40.00
-34.12
-28.65
-24.01
-20.36
-17.62
-15.67
-14.45
-14.02
-14.43
-15.76
-17.96
-20.89
-24.30
-27.80
-30.98
-33.48
-35.17
-36.23
-37.06
-38.14
-39.82
-42.06
-44.51
-46.63
-47.89
-48.02
-46.97
-44.95
-42.31
-39.52
-37.17
-35.85
-36.06
-38.00
-41.37
-45.49
-49.50
-52.71
-54.91
-56.42
-57.95
-60.33
-64.23
-69.92
-77.21
-85.31
-92.89
-98.31
-99.96
-96.83
-88.83
-76.85
-62.33
-46.60
-30.35
-13.51
4.39
23.67
44.11
64.87
84.85
103.06
118.87
132.13
142.97
151.69
158.70
164.47
169.54
174.36
179.17
183.82
187.81
190.39
190.81
188.59
183.68
176.49
167.79
158.43
149.09
140.10
131.39
122.69
113.66
104.08
93.91
83.25
72.15
60.68
48.97
37.33
26.25
16.29
7.72
0.33
-6.58
-13.89
-22.15
-31.17
-40.01
-47.38
-52.25
-54.40
-54.33
-52.94
-50.82
-47.85
-43.29
-36.25
-26.27
-13.75
0.06
13.48
24.92
33.38
38.73
41.62
43.21
44.91
47.98
53.45
62.07
74.28
90.03
108.48
127.73
144.88
156.57
160.12
154.55
141.20
123.34
104.91
89.04
76.87
67.65
59.47
50.61
40.34
29.10
17.95
7.81
-0.98
-8.63
-15.57
-22.13
-28.69
-35.84
-44.30
-54.66
-66.84
-79.83
-91.97
-101.68
-108.21
-111.94
-114.11
-116.03
-118.49
-121.60
-125.08
-128.83
-133.15
-138.63
-145.64
-153.96
-162.61
-170.01
-174.46
-174.51
-169.35
-159.07
-144.59
-127.54
-109.84
-93.21
-78.80
-66.99
-57.47
-49.58
-42.64
-36.24
-30.27
-24.85
-20.15
-16.21
-12.94
-10.05
-7.32
-4.68
-2.41
-1.15
-1.69
-4.55
-9.66
-16.21
-22.84
-28.16
-31.38
-32.58
-32.60
-32.53
-33.02
-33.96
-34.58
-34.02
-31.98
-29.04
-26.51
-25.83
-27.84
-32.49
-38.83
-45.57
-51.62
-56.42
-59.99
-62.61
-64.69
-66.53
-68.36
-70.32
-72.34
-74.03
-74.54
-72.72
-67.55
-58.64
-46.64
-33.12
-20.08
-9.07
-0.63
5.94
12.19
19.83
29.98
42.86
57.74
73.35
88.26
101.10
110.84
116.75
118.70
117.17
113.25
108.40
103.98
100.82
99.05
98.15
97.24
95.54
92.69
88.86
84.66
80.80
77.77
75.58
73.80
71.76
68.89
65.02
60.27
54.88
48.92
42.21
34.40
25.32
14.98
3.52
-9.01
-22.85
-38.38
-55.84
-74.99
-95.08
-115.10
-134.12
-151.50
-166.60
-178.57
-186.12
-187.87
-182.97
-171.72
-155.75
-137.49
-119.39
-102.99
-88.67
-75.81
-63.47
-51.08
-38.74
-27.11
-17.03
-9.05
-3.20
0.96
4.10
6.83
9.58
12.50
15.60
18.89
22.41
26.23
30.32
34.46
38.28
41.33
43.30
44.10
43.90
42.97
41.55
39.75
37.58
35.01
32.14
29.23
26.61
24.47
22.76
21.12
19.05
16.22
12.55
8.36
4.14
0.40
-2.53
-4.69
-6.45
-8.50
-11.83
-17.39
-25.78
-36.81
-49.22
-60.86
-69.21
-72.32
-69.53
-61.69
-50.80
-39.14
-28.36
-18.99
-10.51
-1.88
7.83
19.00
31.39
44.39
57.27
69.47
80.64
90.63
99.42
107.18
114.31
121.45
129.40
138.84
149.93
162.16
174.20
184.09
189.45
187.95
177.75
158.14
130.05
96.14
60.32
26.78
-1.08
-21.38
-34.01
-40.02
-40.98
-38.31
-32.98
-25.59
-16.57
-6.35
4.45
14.91
23.80
29.58
30.79
26.51
16.73
2.46
-14.40
-31.51
-46.48
-57.22
-62.26
-61.12
-54.55
-44.43
-33.33
-23.75
-17.20
-13.81
-12.45
-11.43
-9.33
-5.56
-0.49
4.90
9.57
12.81
14.51
14.96
14.68
14.16
13.71
13.43
13.26
13.06
12.69
12.12
11.34
10.35
9.04
7.21
4.58
1.01
-3.44
-8.39
-13.30
-17.63
-21.12
-23.82
-26.00
-28.01
-30.04
-32.16
-34.34
-36.53
-38.75
-40.99
-43.13
-44.93
-46.13
-46.66
-46.82
-47.34
-49.15
-53.07
-59.35
-67.47
-75.92
-82.49
-84.83
-81.29
-71.65
-57.42
-41.58
-27.56
-18.10
-14.37
-15.65
-19.91
-24.55
-27.36
-26.95
-22.97
-15.95
-7.02
2.33
10.65
16.88
20.64
22.28
22.74
23.12
24.38
27.01
31.04
36.13
41.67
46.97
51.41
54.57
56.38
57.06
57.00
56.60
56.06
55.41
54.50
53.05
50.79
47.47
42.96
37.42
31.28
25.18
19.73
15.17
11.23
7.17
2.16
-4.36
-12.33
-21.15
-29.88
-37.71
-44.24
-49.68
-54.67
-60.08
-66.58
-74.34
-82.81
-90.67
-96.09
-97.29
-93.16
-83.72
-70.22
-54.76
-39.48
-25.91
-14.52
-4.89
3.91
12.69
21.78
30.97
39.78
47.74
54.65
60.69
66.22
71.56
76.72
81.33
84.73
86.30
85.67
82.92
78.54
73.17
67.36
61.38
55.21
48.74
41.95
34.99
28.22
22.01
16.61
11.99
7.93
4.07
0.15
-3.86
-7.74
-11.09
-13.58
-15.15
-16.06
-16.91
-18.38
-21.10
-25.38
-31.13
-37.78
-44.48
-50.33
-54.73
-57.63
-59.64
-61.77
-65.05
-70.05
-76.49
-83.14
-88.12
-89.40
-85.51
-76.04
-61.99
-45.52
-29.36
-15.99
-6.82
-1.87
0.04
0.75
2.00
4.92
9.83
16.44
24.08
31.97
39.26
45.13
48.89
50.23
49.41
47.29
45.03
43.64
43.65
44.99
47.07
49.08
50.27
50.15
48.55
45.61
41.81
37.90
34.78
33.23
33.62
35.68
38.46
40.54
40.47
37.20
30.32
20.19
7.79
-5.57
-18.56
-30.05
-39.30
-46.05
-50.54
-53.49
-55.87
-58.70
-62.67
-67.92
-73.96
-79.70
-83.76
-84.80
-81.82
-74.45
-63.14
-49.09
-33.97
-19.50
-6.91
3.38
11.71
18.96
25.97
33.15
40.36
47.10
52.78
57.10
60.11
62.13
63.57
64.73
65.75
66.67
67.53
68.35
69.13
69.66
69.49
67.97
64.50
58.76
51.02
42.04
32.86
24.41
17.15
10.85
4.87
-1.47
-8.49
-15.94
-23.08
-29.11
-33.52
-36.33
-38.01
-39.22
-40.45
-41.86
-43.31
-44.51
-45.35
-45.97
-46.79
-48.40
-51.35
-56.00
-62.32
-69.75
-77.13
-82.84
-85.14
-82.66
-74.98
-62.80
-47.85
-32.32
-18.14
-6.40
2.80
10.14
16.56
22.78
29.08
35.30
41.05
45.93
49.77
52.64
54.84
56.76
58.68
60.78
63.00
65.22
67.31
69.16
70.65
71.62
71.81
70.99
69.02
65.98
62.13
57.80
53.17
48.21
42.64
36.10
28.33
19.29
9.27
-1.15
-11.18
-20.06
-27.22
-32.48
-36.06
-38.57
-40.76
-43.26
-46.34
-49.91
-53.60
-56.99
-59.86
-62.24
-64.39
-66.66
-69.39
-72.82
-76.92
-81.34
-85.27
-87.53
-86.85
-82.37
-74.02
-62.69
-50.00
-37.67
-26.99
-18.37
-11.49
-5.68
-0.34
4.80
9.68
14.15
18.07
21.47
24.35
26.66
28.23
28.92
28.66
27.59
25.99
24.17
22.44
20.99
19.98
19.49
19.53
19.97
20.58
21.15
21.60
22.11
22.98
24.48
26.66
29.23
31.65
33.22
33.17
30.73
25.35
16.87
5.78
-6.75
-19.12
-29.77
-37.74
-42.92
-46.00
-48.09
-50.26
-53.28
-57.63
-63.44
-70.56
-78.31
-85.42
-90.15
-90.77
-86.29
-76.99
-64.44
-51.03
-39.04
-29.88
-23.71
-19.54
-15.90
-11.47
-5.60
1.56
9.29
16.69
23.05
28.15
32.18
35.64
39.03
42.62
46.34
49.85
52.78
54.80
55.79
55.77
54.82
53.03
50.48
47.33
43.77
40.04
36.41
33.04
29.99
27.12
24.12
20.57
16.08
10.50
4.05
-2.74
-9.14
-14.54
-18.68
-21.77
-24.45
-27.46
-31.44
-36.61
-42.62
-48.57
-53.11
-54.75
-52.37
-45.59
-35.07
-22.34
-9.33
2.26
11.46
18.22
23.21
27.32
31.28
35.41
39.59
43.48
46.72
49.09
50.52
51.12
51.03
50.46
49.65
48.81
48.16
47.74
47.44
46.91
45.68
43.33
39.74
35.11
29.96
24.91
20.48
16.93
14.28
12.38
11.05
10.12
9.48
8.97
8.41
7.60
6.28
4.25
1.34
-2.51
-7.20
-12.49
-18.01
-23.39
-28.37
-32.84
-36.85
-40.56
-44.14
-47.64
-50.88
-53.33
-54.15
-52.36
-47.15
-38.33
-26.54
-13.16
0.06
11.64
20.80
27.73
33.31
38.66
44.68
51.63
59.23
66.73
73.33
78.46
81.94
83.98
85.03
85.57
85.85
85.80
85.11
83.35
80.30
75.96
70.63
64.75
58.74
52.94
47.59
42.79
38.59
34.96
31.75
28.72
25.62
22.26
18.66
15.04
11.72
8.96
6.77
4.86
2.78
0.12
-3.25
-7.12
-11.02
-14.39
-16.89
-18.54
-19.73
-21.16
-23.67
-28.05
-34.94
-44.59
-56.68
-70.23
-83.54
-94.53
-101.18
-102.17
-97.30
-87.61
-75.17
-62.40
-51.46
-43.66
-39.25
-37.52
-37.22
-37.01
-35.87
-33.31
-29.42
-24.63
-19.48
-14.43
-9.84
-5.90
-2.74
-0.44
1.06
1.98
2.61
3.28
4.13
5.10
5.91
6.27
6.02
5.16
3.87
2.35
0.75
-0.86
-2.47
-4.03
-5.49
-6.71
-7.54
-7.79
-7.38
-6.40
-5.24
-4.56
-5.03
-7.11
-10.70
-15.15
-19.31
-21.77
-21.26
-16.96
-8.71
2.84
16.34
29.98
41.95
50.94
56.47
59.02
59.68
59.70
59.96
60.78
61.92
62.89
63.17
62.48
60.78
58.29
55.29
52.10
48.96
45.96
43.09
40.20
37.13
33.69
29.72
25.15
20.01
14.47
8.82
3.48
-1.19
-4.92
-7.65
-9.55
-10.89
-11.97
-12.94
-13.82
-14.53
-14.98
-15.10
-14.92
-14.48
-13.84
-13.02
-12.07
-11.09
-10.28
-9.96
-10.49
-12.10
-14.76
-18.06
-21.19
-23.11
-22.86
-19.94
-14.57
-7.61
-0.30
6.17
11.06
14.35
16.66
19.10
22.85
28.78
37.20
47.67
59.15
70.29
79.77
86.71
90.76
92.11
91.23
88.73
85.25
81.37
77.61
74.27
71.28
68.18
64.35
59.20
52.61
44.99
37.22
30.22
24.63
20.55
17.61
15.28
13.17
11.21
9.51
8.07
6.52
4.10
0.00
-6.28
-14.56
-24.04
-33.71
-42.75
-50.90
-58.34
-65.49
-72.54
-79.45
-85.95
-91.83
-96.96
-101.25
-104.42
-105.81
-104.50
-99.74
-91.30
-79.76
-66.30
-52.33
-38.95
-26.74
-15.67
-5.55
3.70
11.76
18.06
22.00
23.26
22.05
18.98
14.95
10.78
7.05
4.01
1.64
-0.12
-1.33
-2.00
-2.20
-2.12
-2.11
-2.53
-3.61
-5.32
-7.41
-9.54
-11.50
-13.31
-15.14
-17.25
-19.74
-22.57
-25.53
-28.40
-30.93
-33.05
-34.82
-36.49
-38.46
-41.15
-44.78
-49.22
-53.86
-57.69
-59.65
-58.92
-55.29
-49.27
-41.91
-34.40
-27.71
-22.30
-18.09
-14.65
-11.51
-8.34
-5.12
-2.01
0.77
3.06
4.84
6.21
7.29
8.23
9.09
9.85
10.47
10.92
11.21
11.47
11.80
12.26
12.78
13.20
13.33
13.10
12.57
11.95
11.41
11.09
11.00
11.07
11.20
11.33
11.42
11.42
11.27
10.93
10.42
9.85
9.39
9.18
9.31
9.76
10.43
11.16
11.80
12.24
12.42
12.38
12.21
11.99
11.75
11.42
10.82
9.70
7.73
4.70
0.53
-4.55
-9.92
-14.62
-17.58
-17.96
-15.47
-10.62
-4.53
1.43
6.12
9.03
10.33
10.64
10.68
10.95
11.64
12.68
13.86
14.96
15.84
16.44
16.80
16.95
16.97
16.86
16.67
16.37
15.98
15.48
14.86
14.09
13.11
11.87
10.37
8.60
6.61
4.41
2.07
-0.38
-2.87
-5.28
-7.54
-9.68
-11.79
-14.09
-16.71
-19.77
-23.22
-26.95
-30.83
-34.71
-38.51
-42.17
-45.67
-49.16
-52.85
-57.05
-61.98
-67.70
-73.90
-79.98
-85.10
-88.41
-89.30
-87.57
-83.52
-77.94
-71.76
-65.90
-60.89
-56.80
-53.32
-49.97
-46.40
-42.51
-38.51
-34.72
-31.41
-28.69
-26.50
-24.71
-23.21
-21.93
-20.89
-20.14
-19.72
-19.71
-20.16
-21.05
-22.33
-23.87
-25.54
-27.23
-28.89
-30.49
-31.96
-33.11
-33.64
-33.16
-31.35
-27.95
-22.97
-16.58
-9.10
-0.95
7.39
15.49
22.92
29.33
34.49
38.23
40.49
41.28
40.53
38.21
34.27
28.83
22.30
15.46
9.34
5.05
3.42
4.77
8.71
14.29
20.25
25.47
29.23
31.40
32.35
32.68
32.92
33.41
34.13
34.89
35.42
35.54
35.18
34.42
33.41
32.26
31.10
30.00
29.00
28.11
27.35
26.77
26.32
25.93
25.47
24.84
23.98
22.94
21.83
20.76
19.75
18.74
17.60
16.25
14.69
13.00
11.32
9.69
8.04
6.16
3.91
1.23
-1.67
-4.48
-6.85
-8.57
-9.70
-10.52
-11.44
-12.82
-14.91
-17.71
-20.94
-24.05
-26.22
-26.54
-24.24
-19.05
-11.31
-2.02
7.49
16.01
22.87
28.11
32.34
36.37
40.86
45.98
51.51
56.98
62.06
66.74
71.46
76.81
83.18
90.37
97.55
103.47
106.97
107.50
105.34
101.38
96.67
92.00
87.65
83.52
79.46
75.54
72.06
69.27
67.10
65.10
62.69
59.59
56.03
52.66
49.90
47.40
43.87
37.50
26.88
11.75
-6.85
-27.02
-47.02
-65.92
-83.79
-101.18
-118.29
-134.43
-148.06
-157.37
-161.13
-159.21
-152.62
-142.98
-131.92
-120.53
-109.28
-98.19
-87.19
-76.31
-65.79
-55.94
-47.08
-39.44
-33.20
-28.37
-24.70
-21.60
-18.22
-13.77
-7.86
-0.70
6.93
14.11
20.10
24.69
28.01
30.22
31.33
31.05
29.04
25.25
20.13
14.56
9.52
5.70
3.14
1.24
-0.92
-4.24
-9.17
-15.66
-23.16
-30.94
-38.24
-44.41
-49.00
-51.73
-52.56
-51.73
-49.74
-47.31
-45.17
-43.87
-43.73
-44.66
-46.26
-47.77
-48.16
-46.35
-41.39
-32.96
-21.50
-8.21
5.35
17.68
27.81
35.39
40.53
43.48
44.47
43.67
41.34
38.06
34.70
32.26
31.57
32.89
35.77
39.19
41.95
43.08
42.22
39.72
36.51
33.67
32.13
32.38
34.40
37.74
41.63
45.31
48.22
50.21
51.57
52.85
54.44
56.35
58.00
58.51
57.13
53.63
48.44
42.41
36.40
30.87
25.73
20.65
15.29
9.56
3.67
-2.08
-7.45
-12.46
-17.40
-22.71
-28.88
-36.26
-44.89
-54.41
-63.92
-72.21
-78.00
-80.38
-79.17
-74.94
-68.83
-62.05
-55.39
-49.11
-42.99
-36.67
-29.91
-22.74
-15.38
-8.10
-1.23
4.96
10.13
13.97
16.28
17.06
16.62
15.38
13.86
12.38
11.10
9.98
8.90
7.77
6.48
5.01
3.32
1.44
-0.57
-2.66
-4.77
-6.92
-9.16
-11.69
-14.77
-18.69
-23.60
-29.40
-35.66
-41.65
-46.70
-50.36
-52.59
-53.75
-54.40
-54.93
-55.40
-55.51
-54.81
-53.02
-50.17
-46.75
-43.45
-41.08
-40.38
-41.87
-45.69
-51.36
-57.56
-62.23
-63.02
-58.13
-47.13
-31.25
-13.03
4.76
20.24
33.04
44.12
54.85
66.10
77.76
89.00
98.82
106.69
112.58
116.62
118.70
118.28
114.68
107.63
97.72
86.31
75.04
65.22
57.33
51.03
45.43
39.68
33.28
26.27
19.03
12.09
5.87
0.56
-3.81
-7.37
-10.28
-12.71
-14.85
-16.86
-18.92
-21.14
-23.67
-26.60
-30.12
-34.40
-39.63
-45.86
-52.97
-60.66
-68.57
-76.33
-83.56
-89.82
-94.41
-96.47
-95.14
-90.04
-81.61
-71.20
-60.68
-51.82
-45.60
-42.00
-40.02
-38.25
-35.37
-30.57
-23.67
-14.96
-5.02
5.44
15.76
25.35
33.73
40.51
45.47
48.55
49.87
49.76
48.74
47.43
46.38
45.89
45.95
46.22
46.22
45.54
44.03
41.82
39.30
36.88
34.90
33.58
32.91
32.78
32.93
33.07
32.93
32.33
31.24
29.80
28.28
26.94
25.91
25.06
24.06
22.50
20.02
16.53
12.21
7.53
3.08
-0.62
-3.33
-5.24
-6.88
-9.06
-12.44
-17.24
-22.94
-28.37
-32.03
-32.64
-29.66
-23.45
-15.16
-6.29
1.71
7.73
11.15
11.90
10.44
7.81
5.31
4.22
5.28
8.47
13.05
17.93
22.16
25.27
27.24
28.33
28.70
28.37
27.28
25.47
23.16
20.76
18.65
16.99
15.67
14.38
12.83
10.88
8.61
6.27
4.11
2.26
0.62
-1.01
-2.82
-4.88
-7.05
-9.03
-10.63
-11.81
-12.84
-14.23
-16.55
-20.22
-25.38
-31.75
-38.68
-45.22
-50.36
-53.34
-53.86
-52.18
-48.94
-44.72
-39.70
-33.50
-25.37
-14.78
-1.98
11.76
24.35
33.62
38.13
37.64
33.07
25.99
17.99
10.14
2.97
-3.38
-8.81
-13.05
-15.72
-16.51
-15.43
-12.84
-9.41
-5.86
-2.77
-0.47
1.00
1.85
2.44
3.05
3.87
4.79
5.55
5.84
5.58
5.01
4.69
5.14
6.57
8.72
10.92
12.41
12.76
12.02
10.68
9.35
8.40
7.74
6.83
4.87
1.23
-4.37
-11.61
-19.73
-27.82
-35.18
-41.59
-47.38
-53.24
-59.80
-67.41
-75.90
-84.64
-92.63
-98.71
-101.79
-101.13
-96.53
-88.53
-78.33
-67.51
-57.57
-49.44
-43.33
-38.73
-34.85
-30.89
-26.41
-21.40
-16.11
-10.93
-6.19
-2.06
1.47
4.55
7.39
10.19
13.12
16.29
19.76
23.63
27.89
32.42
36.94
41.07
44.39
46.58
47.57
47.51
46.74
45.71
44.70
43.80
42.81
41.43
39.40
36.74
33.81
31.19
29.47
28.97
29.57
30.72
31.65
31.71
30.64
28.62
26.28
24.38
23.57
24.14
25.82
27.92
29.49
29.68
28.02
24.63
20.26
16.22
14.14
15.56
21.51
31.94
45.48
59.63
71.52
78.83
80.68
77.82
72.20
66.03
60.86
57.11
54.30
51.60
48.48
44.94
41.38
38.20
35.46
32.86
29.96
26.40
22.20
17.69
13.39
9.67
6.59
3.78
0.59
-3.61
-9.17
-15.91
-23.22
-30.23
-36.22
-40.84
-44.18
-46.67
-48.74
-50.65
-52.33
-53.54
-53.98
-53.59
-52.60
-51.57
-51.27
-52.42
-55.48
-60.54
-67.24
-74.94
-82.76
-89.84
-95.33
-98.46
-98.68
-95.75
-89.85
-81.67
-72.24
-62.66
-53.74
-45.83
-38.84
-32.38
-26.10
-19.84
-13.72
-8.06
-3.24
0.48
3.12
4.86
6.08
7.13
8.29
9.73
11.46
13.51
15.86
18.56
21.64
25.09
28.79
32.56
36.15
39.34
41.95
43.80
44.77
44.77
43.91
42.46
40.86
39.57
38.83
38.44
37.73
35.69
31.31
23.90
13.46
0.71
-12.90
-25.57
-35.50
-41.38
-42.72
-39.98
-34.42
-27.62
-21.00
-15.33
-10.60
-6.29
-1.79
3.19
8.34
12.99
16.37
18.04
17.99
16.68
14.81
13.09
11.96
11.65
12.12
13.29
15.04
17.30
20.05
23.16
26.44
29.58
32.15
33.78
34.24
33.52
31.88
29.77
27.70
26.07
25.12
24.78
24.79
24.74
24.24
23.02
21.08
18.56
15.61
12.20
8.05
2.73
-4.06
-12.28
-21.34
-30.31
-38.21
-44.36
-48.70
-51.77
-54.51
-57.87
-62.51
-68.64
-75.96
-83.74
-90.88
-96.04
-97.93
-95.59
-88.76
-78.05
-64.89
-51.12
-38.44
-27.90
-19.69
-13.19
-7.44
-1.59
4.76
11.52
18.24
24.43
29.86
34.62
39.10
43.74
48.73
53.94
58.94
63.27
66.75
69.57
72.13
74.75
77.38
79.54
80.59
80.13
78.32
75.82
73.59
72.47
72.86
74.69
77.37
79.97
81.28
79.93
74.66
64.70
50.11
31.96
12.17
-6.99
-23.52
-36.16
-44.59
-49.25
-51.07
-51.09
-50.32
-49.55
-49.37
-50.09
-51.72
-54.03
-56.65
-59.17
-61.40
-63.35
-65.30
-67.64
-70.55
-73.80
-76.57
-77.67
-75.94
-70.76
-62.40
-51.94
-40.91
-30.61
-21.60
-13.62
-5.86
2.47
11.70
21.57
31.38
40.38
48.04
54.22
59.07
62.88
65.90
68.25
69.91
70.80
70.88
70.26
69.18
68.02
67.06
66.47
66.12
65.70
64.83
63.20
60.72
57.42
53.41
48.78
43.56
37.85
31.80
25.64
19.61
13.78
8.04
2.08
-4.44
-11.71
-19.72
-28.23
-36.92
-45.50
-53.73
-61.39
-68.26
-73.96
-78.16
-80.62
-81.39
-80.87
-79.74
-78.76
-78.57
-79.55
-81.66
-84.50
-87.26
-88.82
-88.02
-83.97
-76.43
-66.02
-54.10
-42.30
-32.01
-23.91
-17.89
-13.18
-8.77
-3.80
2.19
9.18
16.72
24.17
30.88
36.50
40.95
44.53
47.61
50.53
53.36
56.05
58.45
60.58
62.55
64.52
66.47
68.18
69.21
69.09
67.53
64.52
60.43
55.87
51.45
47.58
44.32
41.40
38.41
35.03
31.22
27.27
23.65
20.78
18.84
17.70
16.97
16.06
14.32
11.22
6.35
-0.32
-8.49
-17.56
-26.84
-35.71
-43.82
-51.07
-57.62
-63.74
-69.70
-75.60
-81.27
-86.18
-89.42
-89.95
-86.95
-80.27
-70.55
-59.18
-47.80
-37.71
-29.57
-23.22
-18.05
-13.35
-8.70
-4.04
0.39
4.32
7.59
10.25
12.46
14.38
16.08
17.54
18.72
19.70
20.79
22.40
24.94
28.55
32.92
37.29
40.64
42.13
41.47
39.07
35.99
33.52
32.79
34.38
38.17
43.47
49.23
54.32
57.81
59.13
58.14
55.15
50.77
45.81
40.93
36.48
32.28
27.70
21.91
14.22
4.49
-6.73
-18.33
-29.01
-37.79
-44.41
-49.41
-53.83
-58.67
-64.23
-69.92
-74.27
-75.56
-72.53
-64.91
-53.61
-40.47
-27.62
-16.79
-8.89
-3.92
-1.22
0.10
0.96
2.08
3.97
6.91
10.95
15.89
21.28
26.54
31.17
34.83
37.54
39.54
41.31
43.33
45.91
49.14
52.77
56.35
59.32
61.20
61.68
60.66
58.14
54.20
48.98
42.70
35.63
28.08
20.17
11.87
2.99
-6.60
-16.74
-26.89
-36.24
-43.97
-49.55
-52.85
-54.16
-54.03
-53.11
-51.97
-51.14
-51.05
-52.01
-54.10
-57.07
-60.17
-62.22
-61.85
-57.92
-49.95
-38.48
-24.96
-11.38
0.38
9.07
14.46
17.25
18.68
20.04
22.13
25.12
28.53
31.63
33.77
34.79
34.98
34.94
35.31
36.47
38.46
41.01
43.67
45.85
46.87
46.10
43.11
37.88
30.97
23.38
16.25
10.34
5.78
2.01
-1.86
-6.56
-12.27
-18.48
-24.22
-28.46
-30.51
-30.24
-28.13
-25.00
-21.78
-19.22
-17.72
-17.38
-18.07
-19.57
-21.70
-24.35
-27.50
-31.22
-35.56
-40.50
-45.79
-50.88
-54.85
-56.59
-55.11
-50.00
-41.62
-31.21
-20.56
-11.37
-4.75
-0.94
0.74
1.42
2.18
3.69
6.00
8.74
11.40
13.63
15.42
17.09
19.09
21.82
25.49
30.05
35.27
40.77
46.17
51.11
55.34
58.77
61.39
63.32
64.76
65.96
67.19
68.72
70.62
72.73
74.69
75.99
76.21
75.14
72.79
69.30
64.71
58.85
51.39
42.12
31.15
19.04
6.68
-4.96
-15.12
-23.45
-29.98
-35.00
-38.88
-41.98
-44.55
-46.80
-48.95
-51.31
-54.33
-58.54
-64.31
-71.55
-79.50
-86.71
-91.39
-92.03
-87.95
-79.69
-68.81
-57.38
-47.35
-39.89
-35.20
-32.63
-31.15
-29.77
-27.90
-25.47
-22.78
-20.28
-18.32
-16.99
-16.18
-15.73
-15.55
-15.68
-16.21
-17.14
-18.26
-19.22
-19.56
-18.98
-17.42
-15.10
-12.39
-9.64
-6.99
-4.32
-1.38
2.05
5.87
9.71
13.00
15.24
16.24
16.24
15.78
15.38
15.37
15.68
15.98
15.77
14.69
12.59
9.62
6.18
2.78
-0.07
-2.10
-3.33
-4.11
-4.99
-6.58
-9.33
-13.35
-18.27
-23.28
-27.12
-28.46
-26.19
-19.86
-9.91
2.40
15.35
27.32
37.27
44.94
50.73
55.40
59.64
63.82
67.97
71.83
74.99
77.01
77.53
76.27
73.09
67.96
61.08
52.86
44.02
35.50
28.21
22.90
19.77
18.56
18.67
19.45
20.35
21.03
21.21
20.57
18.77
15.64
11.29
6.23
1.15
-3.32
-6.76
-9.05
-10.18
-10.19
-9.10
-6.99
-4.12
-1.01
1.78
3.63
4.14
3.10
0.49
-3.58
-8.84
-14.93
-21.39
-27.72
-33.46
-38.31
-42.00
-44.32
-45.03
-43.84
-40.60
-35.37
-28.59
-21.00
-13.50
-6.85
-1.43
2.83
6.36
9.69
13.13
16.55
19.38
20.86
20.39
17.91
14.00
9.64
5.85
3.26
1.92
1.39
1.14
0.80
0.42
0.28
0.69
1.68
2.95
4.05
4.59
4.46
3.80
2.86
1.73
0.32
-1.61
-4.23
-7.47
-10.96
-14.18
-16.62
-17.99
-18.26
-17.64
-16.45
-15.03
-13.73
-12.82
-12.54
-12.96
-13.96
-15.30
-16.78
-18.31
-20.07
-22.39
-25.60
-29.71
-34.26
-38.25
-40.36
-39.34
-34.43
-25.62
-13.78
-0.27
13.31
25.54
35.48
42.66
46.99
48.65
48.06
45.85
42.92
40.28
38.78
38.78
39.87
40.95
40.51
37.26
30.70
21.40
10.96
1.45
-5.27
-8.22
-7.59
-4.50
-0.50
3.16
5.91
7.88
9.54
11.24
12.87
13.93
13.83
12.19
9.11
5.13
0.95
-2.83
-5.85
-8.05
-9.50
-10.31
-10.59
-10.52
-10.42
-10.71
-11.88
-14.39
-18.66
-24.91
-33.20
-43.36
-54.83
-66.66
-77.57
-86.08
-90.92
-91.39
-87.57
-80.25
-70.67
-60.08
-49.45
-39.28
-29.63
-20.39
-11.39
-2.59
5.87
13.75
20.76
26.60
31.07
34.02
35.53
35.79
35.20
34.26
33.56
33.68
35.05
37.82
41.74
46.09
49.82
51.88
51.52
48.59
43.54
37.33
31.00
25.38
20.85
17.32
14.41
11.63
8.55
5.01
0.99
-3.33
-7.68
-11.75
-15.20
-17.75
-19.29
-20.03
-20.59
-21.84
-24.74
-29.95
-37.64
-47.47
-58.79
-70.82
-82.79
-93.91
-103.26
-109.75
-112.31
-110.30
-103.80
-93.76
-81.71
-69.24
-57.47
-46.77
-36.85
-27.19
-17.39
-7.56
1.83
10.16
16.96
22.19
26.17
29.45
32.60
36.03
39.89
44.14
48.55
52.78
56.40
58.96
60.10
59.66
57.75
54.73
51.12
47.39
43.82
40.53
37.46
34.58
31.98
29.87
28.48
27.95
28.17
28.74
29.10
28.64
26.86
23.46
18.39
11.84
4.21
-4.00
-12.25
-20.21
-27.80
-35.29
-43.16
-51.76
-60.93
-69.87
-77.07
-80.80
-79.67
-73.08
-61.53
-46.48
-29.98
-14.07
-0.38
10.24
17.73
22.65
25.81
27.99
29.65
30.93
31.73
31.95
31.64
31.01
30.24
29.37
28.19
26.30
23.32
19.09
13.71
7.55
1.07
-5.37
-11.58
-17.52
-23.20
-28.59
-33.51
-37.60
-40.42
-41.55
-40.82
-38.47
-35.18
-31.88
-29.47
-28.42
-28.60
-29.44
-30.15
-30.18
-29.36
-27.97
-26.48
-25.36
-24.95
-25.48
-27.09
-29.82
-33.37
-37.02
-39.55
-39.60
-36.10
-28.82
-18.54
-6.83
4.49
13.96
20.91
25.58
28.80
31.66
35.02
39.35
44.67
50.63
56.67
62.22
66.74
69.87
71.50
71.75
70.89
69.32
67.45
65.62
63.98
62.53
61.04
59.20
56.68
53.39
49.47
45.31
41.40
38.11
35.58
33.65
31.92
29.85
26.96
22.94
17.68
11.22
3.77
-4.42
-13.10
-21.98
-30.85
-39.47
-47.67
-55.29
-62.15
-68.07
-72.90
-76.57
-79.20
-81.15
-82.99
-85.35
-88.54
-92.28
-95.57
-96.86
-94.66
-88.11
-77.48
-64.14
-50.13
-37.35
-26.97
-19.17
-13.33
-8.50
-3.94
0.70
5.40
10.00
14.41
18.58
22.43
25.74
28.23
29.64
29.94
29.43
28.63
28.10
28.16
28.83
29.80
30.64
30.95
30.52
29.36
27.62
25.49
23.18
20.85
18.52
16.18
13.73
11.12
8.38
5.66
3.10
0.79
-1.38
-3.68
-6.37
-9.62
-13.34
-17.25
-20.94
-24.13
-26.75
-29.02
-31.36
-34.32
-38.39
-43.82
-50.46
-57.65
-64.21
-68.65
-69.54
-66.08
-58.40
-47.64
-35.58
-24.08
-14.49
-7.29
-2.09
2.04
6.09
10.74
16.14
21.99
27.74
32.85
36.99
40.04
42.13
43.50
44.45
45.24
46.11
47.22
48.61
50.15
51.47
52.07
51.41
49.20
45.52
40.85
35.96
31.60
28.20
25.78
23.92
22.10
19.92
17.32
14.62
12.26
10.56
9.61
9.15
8.80
8.18
7.08
5.54
3.75
1.94
0.29
-1.14
-2.46
-3.96
-6.07
-9.28
-13.94
-20.07
-27.15
-34.06
-39.32
-41.46
-39.56
-33.70
-24.91
-14.97
-5.68
1.73
6.95
10.53
13.43
16.56
20.30
24.54
28.79
32.57
35.56
37.75
39.29
40.41
41.29
41.97
42.38
42.33
41.64
40.21
38.18
35.92
33.89
32.49
31.91
32.11
33.00
34.47
36.60
39.49
43.12
47.20
51.25
54.69
57.12
58.35
58.35
57.05
54.26
49.70
43.28
35.25
26.30
17.33
9.10
2.00
-4.06
-9.48
-14.65
-19.71
-24.43
-28.42
-31.34
-33.13
-34.16
-35.07
-36.58
-39.23
-43.17
-48.08
-53.12
-57.08
-58.59
-56.52
-50.31
-40.21
-27.36
-13.47
-0.30
10.84
19.54
26.22
31.88
37.42
43.32
49.43
55.28
60.48
65.02
69.34
74.16
80.14
87.61
96.54
106.40
116.13
124.09
128.21
126.38
117.21
100.69
78.46
53.46
29.01
7.85
-8.46
-19.53
-25.71
-27.60
-25.90
-21.42
-15.36
-9.28
-4.78
-3.01
-4.30
-7.96
-12.67
-16.95
-19.64
-20.27
-19.09
-16.88
-14.61
-13.26
-13.61
-16.17
-21.16
-28.46
-37.46
-47.13
-56.22
-63.53
-68.28
-70.15
-69.21
-65.48
-58.72
-48.40
-33.98
-15.37
6.82
31.36
56.71
81.30
103.59
121.91
134.51
139.94
137.85
129.75
118.97
109.73
105.36
106.87
112.53
118.79
122.14
120.66
114.61
105.79
96.12
86.55
76.80
65.96
53.34
39.04
23.86
8.66
-6.11
-20.60
-35.25
-50.34
-65.73
-80.88
-95.11
-107.93
-119.15
-128.89
-137.37
-144.75
-151.05
-156.18
-159.98
-162.31
-163.14
-162.57
-160.90
-158.62
-156.35
-154.75
-154.33
-155.27
-157.31
-159.68
-161.19
-160.52
-156.53
-148.72
-137.40
-123.63
-108.85
-94.40
-81.08
-69.08
-58.13
-47.86
-38.02
-28.61
-19.85
-12.00
-5.21
0.43
4.99
8.57
11.35
13.52
15.24
16.62
17.75
18.73
19.63
20.52
21.33
21.87
21.83
20.96
19.21
16.78
14.08
11.54
9.45
7.84
6.54
5.22
3.59
1.48
-1.05
-3.77
-6.32
-8.38
-9.83
-10.81
-11.66
-12.80
-14.50
-16.69
-19.00
-20.89
-21.92
-22.01
-21.48
-21.02
-21.43
-23.40
-27.20
-32.64
-38.98
-44.98
-49.14
-50.04
-46.75
-39.20
-28.24
-15.47
-2.69
8.76
18.35
26.47
34.01
41.79
49.97
57.77
63.71
66.12
63.84
56.77
45.91
33.15
20.58
10.00
2.46
-1.72
-2.77
-1.20
2.42
7.40
13.04
18.50
22.89
25.43
25.55
23.13
18.54
12.61
6.39
0.86
-3.46
-6.62
-9.18
-11.88
-15.26
-19.39
-23.91
-28.26
-32.00
-35.04
-37.59
-39.95
-42.34
-44.73
-46.95
-48.79
-50.20
-51.41
-52.91
-55.35
-59.35
-65.38
-73.58
-83.64
-94.78
-105.70
-114.72
-120.15
-120.60
-115.51
-105.34
-91.54
-76.21
-61.46
-48.91
-39.21
-32.08
-26.55
-21.51
-16.12
-10.08
-3.66
2.63
8.30
13.11
17.22
20.98
24.74
28.74
32.97
37.35
41.70
45.91
49.89
53.50
56.63
59.16
61.04
62.32
63.11
63.43
63.17
62.00
59.45
55.00
48.31
39.28
28.17
15.60
2.44
-10.31
-21.69
-31.03
-38.06
-42.97
-46.28
-48.69
-50.82
-53.09
-55.64
-58.26
-60.40
-61.13
-59.37
-54.24
-45.38
-33.28
-19.28
-5.13
7.59
17.98
26.06
32.57
38.41
44.12
49.55
53.93
56.36
56.23
53.55
48.94
43.35
37.74
32.79
28.80
25.84
23.90
23.04
23.34
24.79
27.25
30.42
33.96
37.60
41.13
44.36
47.05
48.88
49.52
48.74
46.51
43.01
38.59
33.68
28.63
23.66
18.86
14.21
9.62
5.03
0.40
-4.25
-8.85
-13.28
-17.45
-21.35
-25.11
-29.01
-33.36
-38.40
-44.01
-49.62
-54.18
-56.37
-55.04
-49.68
-40.77
-29.70
-18.41
-8.68
-1.61
2.71
4.95
6.10
7.03
8.11
9.35
10.52
11.47
12.14
12.55
12.72
12.64
12.34
12.00
11.93
12.50
14.02
16.57
19.99
23.83
27.50
30.30
31.65
31.22
29.09
25.76
22.00
18.58
16.08
14.71
14.40
14.90
15.92
17.22
18.49
19.52
20.03
19.81
18.77
16.96
14.52
11.70
8.78
6.03
3.65
1.72
0.01
-2.02
-5.16
-10.14
-17.30
-26.26
-35.93
-44.70
-50.92
-53.35
-51.61
-46.18
-38.27
-29.39
-20.89
-13.64
-7.91
-3.40
0.49
4.37
8.58
13.05
17.37
20.99
23.56
25.07
25.85
26.39
27.08
28.05
29.19
30.23
30.97
31.47
31.98
32.85
34.31
36.25
38.27
39.84
40.48
40.04
38.72
36.95
35.19
33.68
32.37
31.00
29.22
26.80
23.63
19.81
15.58
11.30
7.30
3.86
1.08
-1.23
-3.55
-6.49
-10.62
-16.21
-23.12
-30.68
-37.78
-43.05
-45.18
-43.33
-37.49
-28.57
-18.19
-8.20
-0.03
5.74
9.41
11.92
14.29
17.24
20.92
25.03
29.00
32.37
34.90
36.69
38.01
39.22
40.59
42.21
44.06
46.05
48.06
49.98
51.70
53.01
53.72
53.66
52.80
51.34
49.59
47.87
46.34
44.91
43.31
41.25
38.55
35.25
31.63
27.99
24.63
21.64
19.02
16.68
14.58
12.77
11.30
10.15
9.10
7.72
5.54
2.21
-2.24
-7.34
-12.32
-16.32
-18.78
-19.65
-19.44
-19.03
-19.38
-21.29
-25.12
-30.74
-37.45
-44.04
-49.02
-50.95
-48.92
-42.97
-34.14
-24.20
-15.03
-8.01
-3.56
-1.18
0.19
1.57
3.56
6.13
8.84
11.10
12.49
12.89
12.48
11.56
10.52
9.67
9.21
9.28
9.90
10.99
12.41
14.00
15.64
17.28
18.97
20.73
22.59
24.50
26.40
28.25
30.03
31.71
33.20
34.29
34.81
34.67
33.99
33.10
32.39
32.19
32.63
33.60
34.76
35.69
36.05
35.67
34.66
33.40
32.34
31.88
32.07
32.49
32.34
30.71
26.90
20.67
12.34
2.71
-7.11
-15.81
-22.16
-25.13
-24.21
-19.58
-12.20
-3.61
4.51
10.86
14.81
16.60
17.03
17.06
17.51
18.76
20.75
23.14
25.43
27.22
28.31
28.70
28.62
28.42
28.56
29.43
31.28
34.06
37.33
40.26
41.75
40.80
36.81
29.88
20.79
10.76
1.06
-7.39
-14.17
-19.38
-23.38
-26.64
-29.53
-32.29
-35.06
-37.92
-40.88
-43.84
-46.66
-49.14
-51.17
-52.73
-53.91
-54.93
-55.98
-57.18
-58.46
-59.62
-60.41
-60.65
-60.30
-59.54
-58.71
-58.19
-58.38
-59.50
-61.60
-64.35
-67.12
-68.93
-68.76
-65.83
-59.92
-51.58
-41.94
-32.44
-24.24
-17.91
-13.41
-10.17
-7.55
-5.02
-2.38
0.30
2.83
4.98
6.59
7.61
8.04
7.94
7.43
6.66
5.87
5.31
5.18
5.57
6.40
7.39
8.08
7.96
6.61
3.99
0.46
-3.12
-5.72
-6.47
-4.97
-1.51
3.09
7.88
12.10
15.53
18.38
21.02
23.66
26.13
28.08
29.13
29.22
28.64
27.85
27.19
26.65
25.78
23.87
20.28
14.71
7.36
-1.15
-10.01
-18.38
-25.52
-30.86
-33.92
-34.49
-32.66
-29.04
-24.58
-20.40
-17.43
-16.06
-16.10
-16.95
-17.92
-18.51
-18.44
-17.66
-16.17
-13.96
-10.96
-7.14
-2.48
2.95
9.09
15.77
22.79
29.81
36.33
41.76
45.47
47.02
46.20
43.22
38.58
33.03
27.30
21.96
17.20
12.96
9.00
5.11
1.13
-2.97
-7.16
-11.38
-15.59
-19.71
-23.66
-27.34
-30.63
-33.45
-35.68
-37.29
-38.38
-39.22
-40.22
-41.87
-44.40
-47.72
-51.31
-54.30
-55.75
-54.84
-51.08
-44.31
-34.72
-22.81
-9.40
4.45
17.58
28.96
37.97
44.50
48.88
51.72
53.66
55.21
56.74
58.40
60.22
62.04
63.46
64.02
63.27
61.05
57.59
53.45
49.37
45.93
43.44
41.80
40.65
39.57
38.19
36.34
34.00
31.29
28.35
25.26
22.11
18.96
15.88
12.99
10.34
7.93
5.56
2.98
-0.03
-3.55
-7.39
-11.21
-14.69
-17.65
-20.19
-22.61
-25.25
-28.33
-31.77
-35.26
-38.43
-41.04
-43.18
-45.26
-47.85
-51.40
-56.02
-61.35
-66.62
-70.84
-73.09
-72.84
-70.12
-65.58
-60.35
-55.74
-52.93
-52.57
-54.49
-57.73
-60.78
-62.10
-60.67
-56.36
-49.84
-42.27
-34.79
-28.09
-22.29
-17.10
-12.14
-7.26
-2.57
1.65
5.21
8.22
11.01
13.97
17.27
20.70
23.79
26.02
27.16
27.35
27.07
26.83
26.89
27.17
27.30
26.89
25.74
23.97
21.91
19.91
18.22
16.82
15.58
14.28
12.76
10.92
8.73
6.19
3.37
0.36
-2.68
-5.56
-8.10
-10.32
-12.40
-14.69
-17.61
-21.39
-25.97
-30.83
-35.12
-37.79
-37.99
-35.31
-30.05
-23.10
-15.71
-9.05
-3.90
-0.42
1.77
3.29
4.81
6.70
9.03
11.60
14.03
15.97
17.19
17.67
17.57
17.14
16.64
16.21
15.95
15.92
16.20
16.87
17.97
19.34
20.66
21.56
21.72
21.13
20.04
18.89
18.06
17.72
17.72
17.68
17.17
15.89
13.79
11.10
8.21
5.52
3.32
1.63
0.26
-1.10
-2.75
-4.81
-7.25
-9.84
-12.37
-14.66
-16.72
-18.66
-20.67
-22.99
-25.80
-29.27
-33.43
-38.07
-42.65
-46.35
-48.20
-47.44
-43.81
-37.75
-30.31
-22.79
-16.34
-11.55
-8.40
-6.41
-4.96
-3.58
-2.17
-0.90
-0.04
0.20
-0.21
-1.14
-2.38
-3.72
-5.03
-6.17
-6.97
-7.28
-6.91
-5.85
-4.28
-2.58
-1.23
-0.62
-0.91
-1.97
-3.50
-5.18
-6.83
-8.41
-9.96
-11.50
-13.01
-14.43
-15.74
-17.03
-18.41
-19.93
-21.59
-23.24
-24.74
-25.98
-26.92
-27.58
-28.06
-28.52
-29.23
-30.52
-32.63
-35.62
-39.12
-42.41
-44.45
-44.28
-41.30
-35.48
-27.50
-18.45
-9.59
-1.88
4.18
8.68
12.05
14.84
17.46
20.04
22.47
24.58
26.18
27.20
27.65
27.50
26.76
25.39
23.39
20.92
18.24
15.82
14.11
13.53
14.21
15.98
18.41
20.93
23.03
24.38
24.95
24.90
24.48
23.93
23.33
22.71
22.05
21.35
20.59
19.74
18.75
17.49
15.88
13.96
11.85
9.76
7.93
6.46
5.30
4.21
2.88
0.99
-1.59
-4.79
-8.28
-11.63
-14.49
-16.73
-18.60
-20.57
-23.19
-26.86
-31.61
-36.97
-42.02
-45.55
-46.34
-43.60
-37.18
-27.72
-16.49
-4.95
5.66
14.71
22.19
28.58
34.50
40.53
46.99
53.94
61.28
68.75
75.98
82.61
88.35
93.08
96.96
100.35
103.74
107.64
112.42
118.31
125.32
133.23
141.59
149.73
156.91
162.48
166.11
167.67
167.26
164.93
160.70
154.60
146.79
137.68
127.85
117.86
107.95
98.01
87.62
76.34
63.88
50.25
35.65
20.39
4.81
-10.74
-25.82
-40.02
-53.03
-64.86
-75.81
-86.38
-97.07
-108.02
-118.95
-129.26
-138.36
-145.96
-152.28
-157.94
-163.50
-169.02
-173.84
-176.67
-176.08
-171.25
-162.41
-150.94
-138.89
-128.25
-120.21
-114.81
-111.19
-108.06
-104.38
-99.68
-94.11
-88.12
-82.16
-76.47
-71.03
-65.74
-60.51
-55.34
-50.28
-45.35
-40.51
-35.65
-30.69
-25.66
-20.76
-16.38
-12.95
-10.80
-9.92
-9.89
-9.94
-9.24
-7.25
-3.99
-0.02
3.75
6.48
7.76
7.75
7.05
6.40
6.30
6.82
7.58
7.99
7.51
5.88
3.20
-0.20
-3.88
-7.47
-10.77
-13.79
-16.68
-19.73
-23.31
-27.73
-33.02
-38.64
-43.40
-45.59
-43.60
-36.53
-24.75
-9.82
6.01
20.72
33.09
42.89
50.62
56.89
62.08
66.20
69.16
70.98
71.93
72.42
72.78
73.16
73.58
74.01
74.53
75.30
76.49
78.20
80.42
83.12
86.27
89.87
93.91
98.24
102.49
105.99
107.79
106.73
101.56
91.31
75.56
54.86
30.78
5.70
-17.77
-37.50
-52.36
-62.41
-68.47
-71.69
-72.97
-72.88
-71.80
-70.17
-68.54
-67.51
-67.38
-67.92
-68.43
-68.06
-66.17
-62.73
-58.32
-54.01
-50.94
-49.96
-51.36
-54.67
-58.78
-62.20
-63.30
-60.85
-54.35
-44.20
-31.64
-18.41
-6.13
4.14
12.26
18.77
24.64
30.69
37.28
44.22
50.83
56.39
60.32
62.52
63.41
63.94
65.31
68.63
74.37
82.03
90.09
96.54
99.60
98.52
93.80
86.86
79.30
72.11
65.38
58.57
51.00
42.35
32.79
22.71
12.42
1.94
-8.78
-19.64
-30.14
-39.45
-46.76
-51.61
-54.14
-54.97
-55.01
-55.13
-55.91
-57.55
-59.78
-62.03
-63.58
-63.85
-62.66
-60.30
-57.50
-55.18
-54.12
-54.69
-56.69
-59.39
-61.63
-62.19
-60.05
-54.78
-46.66
-36.70
-26.29
-16.79
-9.09
-3.39
0.69
3.87
6.85
10.09
13.71
17.51
21.20
24.42
26.93
28.61
29.48
29.68
29.45
29.03
28.70
28.62
28.85
29.32
29.82
30.06
29.82
28.97
27.54
25.72
23.74
21.82
20.12
18.72
17.64
16.85
16.26
15.77
15.22
14.50
13.59
12.52
11.42
10.36
9.34
8.31
7.12
5.66
3.89
1.85
-0.35
-2.54
-4.56
-6.32
-7.77
-9.05
-10.45
-12.37
-15.14
-18.86
-23.25
-27.58
-30.79
-31.84
-30.00
-25.19
-18.02
-9.67
-1.55
5.17
9.78
12.25
13.04
12.89
12.49
12.32
12.55
13.08
13.70
14.22
14.52
14.61
14.61
14.68
15.08
16.08
17.97
20.98
25.14
30.27
35.93
41.51
46.40
50.11
52.41
53.42
53.56
53.53
54.09
55.99
59.70
65.19
71.84
78.43
83.46
85.43
83.40
77.26
67.80
56.44
44.79
34.14
25.13
17.71
11.50
6.07
1.33
-2.39
-4.50
-4.52
-2.57
0.39
2.63
2.02
-3.35
-14.53
-31.31
-52.17
-74.60
-95.65
-112.67
-123.91
-128.82
-128.11
-123.25
-115.98
-107.69
-99.12
-90.42
-81.43
-72.07
-62.58
-53.39
-44.93
-37.39
-30.58
-23.98
-16.93
-8.84
0.56
11.04
21.94
32.34
41.41
48.69
54.29
58.68
62.46
66.03
69.45
72.58
75.37
77.94
80.55
83.23
85.36
85.78
83.10
76.39
65.67
51.97
36.85
21.75
7.42
-6.16
-19.40
-32.61
-45.66
-57.95
-68.82
-77.80
-84.79
-89.94
-93.41
-95.34
-95.82
-95.12
-93.71
-92.19
-91.07
-90.52
-90.28
-89.60
-87.47
-82.86
-75.07
-64.03
-50.39
-35.46
-20.92
-8.40
0.90
6.44
8.36
7.28
4.10
-0.25
-4.90
-9.19
-12.61
-14.90
-16.01
-16.09
-15.37
-14.11
-12.48
-10.56
-8.32
-5.70
-2.67
0.75
4.45
8.24
11.90
15.17
17.73
19.23
19.38
18.18
15.99
13.54
11.73
11.26
12.39
14.66
17.08
18.36
17.33
13.37
6.58
-2.15
-11.50
-20.04
-26.81
-31.50
-34.55
-36.91
-39.58
-43.26
-48.07
-53.46
-58.42
-61.75
-62.37
-59.68
-53.75
-45.32
-35.63
-26.08
-17.85
-11.59
-7.33
-4.62
-2.73
-1.02
0.90
3.12
5.41
7.39
8.72
9.19
8.82
7.88
6.82
6.11
6.17
7.21
9.25
12.04
15.21
18.31
20.96
22.91
24.11
24.71
25.04
25.53
26.60
28.44
30.93
33.57
35.63
36.45
35.70
33.52
30.50
27.37
24.70
22.70
21.11
19.47
17.29
14.30
10.62
6.59
2.78
-0.30
-2.28
-3.21
-3.67
-4.72
-7.70
-13.67
-22.93
-34.58
-46.65
-56.63
-62.41
-63.05
-59.09
-52.21
-44.47
-37.39
-31.61
-26.86
-22.49
-17.95
-13.03
-7.80
-2.47
2.82
7.95
12.81
17.20
21.00
24.22
27.07
29.86
32.84
36.09
39.57
43.15
46.75
50.26
53.51
56.16
57.77
57.94
56.58
53.97
50.68
47.34
44.37
41.90
39.81
37.84
35.81
33.57
30.93
27.60
23.20
17.47
10.44
2.59
-5.31
-12.46
-18.44
-23.32
-27.65
-31.98
-36.58
-41.24
-45.37
-48.44
-50.23
-51.08
-51.60
-52.45
-53.87
-55.60
-56.85
-56.60
-53.93
-48.42
-40.30
-30.45
-20.13
-10.66
-2.98
2.53
6.15
8.55
10.53
12.75
15.50
18.71
22.08
25.22
27.86
29.89
31.38
32.48
33.28
33.79
33.97
33.83
33.49
33.18
33.05
33.12
33.16
32.84
31.88
30.21
27.96
25.37
22.53
19.36
15.68
11.42
6.78
2.27
-1.51
-4.10
-5.40
-5.73
-5.65
-5.72
-6.32
-7.56
-9.40
-11.78
-14.73
-18.39
-22.98
-28.63
-35.29
-42.57
-49.66
-55.38
-58.40
-57.58
-52.40
-43.10
-30.75
-16.89
-3.14
9.25
19.67
28.10
34.96
40.86
46.30
51.61
56.89
61.96
66.39
69.64
71.27
71.17
69.72
67.67
65.85
64.78
64.42
64.29
63.87
62.96
62.03
61.95
63.65
67.53
73.26
79.92
86.42
91.93
96.20
99.46
102.22
104.95
107.80
110.55
112.69
113.55
112.46
108.88
102.41
92.84
80.12
64.41
46.18
26.13
5.06
-16.21
-36.96
-56.50
-74.05
-88.89
-100.55
-109.12
-115.32
-120.15
-124.25
-127.41
-128.44
-125.66
-117.92
-105.35
-89.49
-72.74
-57.33
-44.35
-33.56
-23.87
-14.16
-4.14
5.56
13.77
19.52
22.57
23.50
23.18
22.23
20.54
17.43
12.07
4.21
-5.62
-16.08
-25.70
-33.32
-38.55
-41.71
-43.55
-44.71
-45.50
-45.79
-45.19
-43.41
-40.44
-36.66
-32.70
-29.14
-26.31
-24.10
-22.18
-20.12
-17.62
-14.61
-11.34
-8.19
-5.62
-4.01
-3.47
-3.85
-4.62
-5.05
-4.48
-2.62
0.20
2.91
3.89
1.43
-5.78
-18.11
-34.70
-53.48
-71.50
-85.68
-93.54
-93.94
-87.27
-75.31
-60.54
-45.43
-31.84
-20.65
-11.98
-5.32
0.05
4.90
9.83
15.18
20.86
26.45
31.33
34.86
36.76
37.08
36.30
35.03
33.89
33.33
33.53
34.45
35.81
37.21
38.19
38.35
37.49
35.63
32.97
29.85
26.67
23.78
21.38
19.50
17.90
16.21
14.05
11.19
7.61
3.54
-0.71
-4.81
-8.55
-11.87
-14.81
-17.52
-20.19
-22.99
-26.04
-29.30
-32.58
-35.52
-37.76
-39.07
-39.46
-39.23
-38.88
-38.90
-39.57
-40.78
-41.88
-41.89
-39.75
-34.76
-26.89
-16.87
-6.03
4.15
12.48
18.43
22.15
24.34
25.86
27.48
29.63
32.30
35.19
37.85
39.89
41.09
41.42
40.92
39.70
37.86
35.51
32.83
30.09
27.56
25.46
23.83
22.53
21.32
20.01
18.52
16.87
15.15
13.40
11.60
9.73
7.79
5.78
3.71
1.54
-0.77
-3.21
-5.70
-8.08
-10.15
-11.76
-12.93
-13.86
-14.85
-16.22
-18.23
-20.96
-24.31
-27.99
-31.53
-34.43
-36.34
-37.20
-37.41
-37.66
-38.67
-40.89
-44.20
-47.85
-50.63
-51.20
-48.57
-42.42
-33.30
-22.54
-11.87
-2.85
3.57
7.31
9.05
9.81
10.45
11.43
12.62
13.57
13.83
13.10
11.38
8.97
6.30
3.81
1.75
0.22
-0.97
-2.09
-3.35
-4.82
-6.28
-7.37
-7.70
-6.98
-5.19
-2.57
0.47
3.45
5.95
7.79
9.02
9.90
10.73
11.72
12.81
13.72
14.05
13.42
11.68
8.97
5.76
2.69
0.39
-0.77
-0.80
-0.04
0.98
1.79
2.15
2.06
1.64
0.97
0.00
-1.47
-3.70
-6.89
-11.03
-15.89
-20.95
-25.39
-28.30
-28.90
-26.74
-22.03
-15.55
-8.35
-1.53
4.19
8.61
11.91
14.48
16.65
18.60
20.30
21.64
22.54
23.06
23.39
23.75
24.34
25.24
26.36
27.60
28.85
30.06
31.25
32.48
33.74
34.95
35.92
36.43
36.28
35.40
33.85
31.85
29.75
27.91
26.69
26.33
26.89
28.29
30.28
32.59
34.97
37.26
39.48
41.79
44.44
47.61
51.38
55.59
59.92
63.89
66.95
68.62
68.58
66.81
63.53
59.16
54.05
48.18
41.03
31.66
19.10
2.99
-16.01
-36.12
-54.84
-69.75
-79.32
-83.44
-83.30
-80.82
-77.84
-75.47
-73.86
-72.49
-70.54
-67.38
-62.69
-56.48
-48.95
-40.37
-31.08
-21.52
-12.13
-3.26
5.00
12.85
20.69
28.88
37.47
46.10
53.98
60.19
63.90
64.69
62.72
58.66
53.49
48.23
43.55
39.61
36.08
32.37
27.91
22.54
16.53
10.49
5.06
0.65
-2.68
-5.23
-7.46
-9.89
-12.87
-16.46
-20.33
-23.78
-25.92
-26.06
-23.97
-20.23
-16.02
-12.75
-11.38
-11.90
-13.14
-13.11
-9.68
-1.44
11.83
29.07
48.33
67.51
85.01
100.01
112.50
122.80
131.15
137.40
141.05
141.44
138.05
130.73
119.79
106.00
90.39
74.13
58.20
43.34
29.95
18.18
8.03
-0.65
-8.15
-15.05
-22.15
-30.25
-39.77
-50.44
-61.22
-70.64
-77.37
-80.81
-81.45
-80.65
-80.15
-81.39
-84.95
-90.42
-96.58
-102.00
-105.60
-106.98
-106.61
-105.37
-104.22
-103.65
-103.62
-103.67
-103.27
-102.18
-100.57
-98.94
-97.91
-97.95
-99.26
-101.67
-104.65
-107.35
-108.71
-107.74
-103.88
-97.36
-89.29
-81.34
-75.10
-71.35
-69.62
-68.35
-65.54
-59.53
-49.65
-36.36
-20.96
-5.00
10.16
23.67
35.07
44.20
51.01
55.62
58.33
59.61
60.08
60.29
60.66
61.31
62.01
62.27
61.51
59.27
55.46
50.51
45.19
40.41
36.76
34.23
32.21
29.71
25.84
20.25
13.27
5.80
-1.06
-6.43
-9.96
-11.76
-12.39
-12.55
-12.88
-13.83
-15.61
-18.27
-21.67
-25.58
-29.65
-33.46
-36.69
-39.32
-41.79
-44.95
-49.74
-56.72
-65.60
-75.01
-82.71
-86.25
-83.76
-74.61
-59.72
-41.31
-22.26
-5.41
7.11
14.14
15.60
12.44
6.28
-0.78
-6.79
-10.29
-10.74
-8.40
-4.04
1.54
7.93
15.08
22.96
31.24
39.16
45.81
50.68
53.90
56.29
58.87
62.25
66.31
70.24
72.97
73.69
72.25
69.10
65.04
60.83
56.90
53.28
49.72
45.86
41.45
36.36
30.59
24.26
17.54
10.68
3.92
-2.46
-8.20
-13.03
-16.67
-18.83
-19.36
-18.40
-16.47
-14.48
-13.67
-15.27
-20.29
-29.08
-41.15
-55.02
-68.44
-78.92
-84.47
-84.23
-78.79
-69.90
-59.72
-50.06
-41.82
-34.98
-28.93
-23.07
-17.05
-10.83
-4.46
2.11
9.05
16.50
24.33
32.15
39.32
45.30
49.89
53.40
56.57
60.27
65.09
71.04
77.48
83.41
87.85
90.30
90.90
90.29
89.30
88.61
88.55
89.16
90.30
91.62
92.65
92.70
91.11
87.49
81.97
75.22
68.16
61.45
55.21
48.89
41.53
32.15
20.10
5.16
-12.52
-32.60
-54.64
-78.14
-102.36
-126.34
-148.95
-169.15
-186.22
-199.93
-210.44
-218.01
-222.60
-223.59
-219.95
-210.66
-195.36
-174.83
-150.93
-126.19
-103.06
-83.22
-67.19
-54.43
-43.68
-33.60
-23.18
-12.04
-0.39
11.28
22.45
32.82
42.25
50.64
57.77
63.28
66.85
68.45
68.37
67.21
65.55
63.81
62.08
60.26
58.26
56.04
53.71
51.34
49.08
46.98
45.17
43.76
42.83
42.32
41.97
41.47
40.61
39.38
37.99
36.74
35.80
35.03
33.99
32.16
29.14
24.92
19.91
14.89
10.76
8.20
7.47
8.16
9.26
9.38
7.12
1.59
-7.28
-18.49
-30.23
-40.41
-47.33
-50.35
-50.06
-47.93
-45.73
-44.70
-45.20
-46.66
-48.07
-48.47
-47.37
-44.87
-41.51
-38.03
-35.24
-33.82
-34.25
-36.60
-40.47
-45.01
-49.11
-51.76
-52.26
-50.37
-46.19
-40.03
-32.29
-23.46
-14.17
-5.10
3.15
10.21
16.09
21.06
25.51
29.83
34.26
38.93
43.81
48.68
53.21
56.92
59.36
60.35
60.03
58.82
57.19
55.48
53.67
51.48
48.49
44.33
38.89
32.30
24.97
17.50
10.61
5.11
1.83
1.43
4.27
10.21
18.56
28.21
37.93
46.71
53.95
59.59
63.94
67.35
70.07
72.08
73.14
73.00
71.45
68.45
64.13
58.67
52.22
44.79
36.18
26.13
14.52
1.66
-11.50
-23.51
-32.85
-38.46
-40.20
-38.83
-35.66
-31.95
-28.51
-25.56
-22.98
-20.69
-18.87
-17.95
-18.37
-20.25
-23.32
-26.99
-30.55
-33.42
-35.31
-36.16
-36.04
-35.07
-33.33
-31.06
-28.71
-27.03
-27.00
-29.41
-34.48
-41.52
-48.95
-54.64
-56.53
-53.33
-45.02
-32.89
-19.19
-6.45
3.32
9.25
11.80
12.42
12.86
14.45
17.68
22.14
27.01
31.47
35.14
38.08
40.54
42.67
44.30
44.91
43.84
40.62
35.23
28.20
20.45
13.02
6.67
1.68
-2.13
-5.13
-7.60
-9.49
-10.43
-10.02
-8.05
-4.79
-0.94
2.61
5.17
6.47
6.77
6.69
6.88
7.73
9.10
10.48
11.16
10.65
8.80
5.98
2.77
-0.20
-2.63
-4.59
-6.54
-9.16
-13.15
-19.01
-26.82
-36.03
-45.34
-52.86
-56.57
-55.03
-48.00
-36.66
-23.28
-10.33
0.29
7.91
12.92
16.29
18.95
21.43
23.77
25.74
26.88
26.56
23.86
17.76
7.45
-7.12
-25.00
-44.25
-62.56
-77.95
-89.27
-96.33
-99.53
-99.43
-96.50
-91.10
-83.75
-75.27
-66.69
-58.94
-52.40
-46.79
-41.29
-35.09
-27.78
-19.61
-11.31
-3.76
2.43
7.04
10.17
12.09
13.03
13.12
12.42
11.08
9.29
7.30
5.32
3.31
1.04
-1.90
-5.86
-10.77
-16.00
-20.35
-22.32
-20.69
-15.01
-5.87
5.23
16.38
26.00
33.25
38.24
41.68
44.43
47.06
49.67
51.99
53.71
54.70
55.10
55.20
55.19
55.06
54.62
53.75
52.64
51.83
52.07
53.99
57.73
62.75
67.93
72.00
74.03
73.92
72.43
70.95
70.87
73.08
77.71
84.24
91.92
100.05
108.16
115.92
122.98
128.95
133.38
135.93
136.26
133.90
128.10
118.00
103.06
83.57
60.86
37.09
14.42
-5.65
-22.74
-37.42
-50.45
-62.12
-71.79
-78.20
-80.10
-77.04
-69.76
-60.00
-49.79
-40.58
-32.82
-25.91
-18.89
-11.06
-2.47
6.13
13.69
19.49
23.45
26.11
28.31
30.71
33.49
36.38
38.79
40.13
39.99
38.36
35.58
32.29
29.22
26.77
24.78
22.27
17.67
9.44
-3.27
-20.11
-39.50
-59.15
-76.81
-90.90
-100.86
-106.99
-110.10
-111.12
-110.70
-109.25
-106.93
-103.83
-100.18
-96.43
-93.08
-90.52
-88.62
-86.72
-83.86
-79.28
-73.03
-66.04
-59.89
-56.09
-55.43
-57.54
-61.02
-63.96
-64.56
-61.66
-55.10
-45.69
-34.96
-24.72
-16.42
-10.88
-8.02
-7.02
-6.63
-5.56
-2.80
2.17
9.21
17.61
26.18
33.55
38.52
40.33
38.82
34.46
28.05
20.62
13.08
6.18
0.44
-3.85
-6.67
-8.23
-8.85
-8.96
-8.92
-9.04
-9.48
-10.18
-10.94
-11.56
-11.93
-12.15
-12.52
-13.35
-14.76
-16.55
-18.21
-19.24
-19.31
-18.48
-17.12
-15.72
-14.64
-13.93
-13.32
-12.31
-10.44
-7.56
-3.92
-0.21
2.63
3.71
2.46
-1.15
-6.59
-12.83
-18.56
-22.38
-23.23
-20.62
-14.80
-6.82
1.91
10.04
16.81
22.17
26.59
30.62
34.57
38.30
41.45
43.64
44.67
44.51
43.25
41.05
38.10
34.82
31.73
29.43
28.32
28.49
29.80
32.01
34.94
38.61
43.13
48.49
54.46
60.49
65.91
70.08
72.68
73.75
73.64
72.82
71.71
70.60
69.76
69.46
69.95
71.18
72.47
72.47
69.46
62.09
50.13
34.80
18.32
3.03
-9.62
-19.54
-27.70
-35.42
-43.56
-52.09
-60.31
-67.19
-71.84
-73.77
-72.86
-69.28
-63.38
-55.71
-46.97
-38.03
-29.76
-22.87
-17.71
-14.20
-11.77
-9.65
-7.09
-3.64
0.53
4.75
7.99
9.32
8.17
4.54
-1.15
-8.20
-15.83
-23.31
-29.97
-35.19
-38.53
-39.79
-39.20
-37.40
-35.25
-33.55
-32.72
-32.72
-33.10
-33.34
-33.14
-32.52
-31.76
-31.14
-30.75
-30.47
-30.04
-29.34
-28.46
-27.65
-27.26
-27.49
-28.32
-29.43
-30.42
-30.93
-30.89
-30.58
-30.57
-31.51
-33.89
-37.77
-42.64
-47.48
-51.00
-51.97
-49.63
-43.88
-35.38
-25.36
-15.34
-6.65
-0.12
4.18
6.82
8.76
10.99
14.11
18.21
22.80
27.08
30.24
31.75
31.60
30.23
28.37
26.77
25.95
26.05
26.89
28.07
29.15
29.75
29.60
28.55
26.64
24.11
21.40
19.09
17.74
17.71
19.00
21.24
23.91
26.47
28.59
30.21
31.50
32.70
33.99
35.43
36.90
38.12
38.69
38.12
36.03
32.23
26.93
20.72
14.46
8.87
4.22
0.08
-4.59
-11.04
-20.21
-32.20
-46.06
-59.99
-71.79
-79.52
-82.11
-79.62
-73.20
-64.65
-55.83
-48.08
-41.99
-37.35
-33.56
-29.89
-25.82
-21.15
-15.88
-10.15
-4.10
2.10
8.21
13.96
19.12
23.62
27.67
31.78
36.52
42.28
49.06
56.32
63.12
68.39
71.36
71.81
70.31
68.05
66.52
67.11
70.52
76.50
83.69
89.96
92.93
90.67
82.17
67.60
48.18
25.87
2.93
-18.43
-36.39
-49.80
-58.35
-62.63
-63.92
-63.85
-63.85
-64.78
-66.56
-68.21
-68.04
-64.10
-54.92
-40.23
-21.47
-1.69
15.19
25.73
28.15
23.08
13.14
1.84
-7.97
-15.17
-20.50
-25.81
-32.83
-42.15
-52.87
-63.02
-70.51
-74.05
-73.53
-69.88
-64.45
-58.30
-51.86
-44.99
-37.35
-28.75
-19.38
-9.66
0.03
9.53
18.96
28.47
37.93
46.82
54.26
59.48
62.19
62.82
62.32
61.74
61.69
61.94
61.46
58.75
52.32
41.23
25.33
5.34
-17.24
-40.39
-62.05
-80.55
-95.01
-105.51
-112.80
-117.79
-120.98
-122.17
-120.55
-115.23
-105.72
-92.34
-76.10
-58.28
-39.90
-21.40
-2.74
16.28
35.59
54.66
72.59
88.53
102.00
113.22
123.03
132.77
143.88
157.63
174.74
195.00
217.16
238.92
257.52
270.36
275.91
274.10
266.28
254.65
241.55
228.83
217.67
208.76
202.43
198.77
197.33
196.89
195.39
190.27
179.35
161.51
137.25
108.38
77.26
45.95
15.44
-14.46
-44.82
-77.08
-112.79
-153.22
-199.13
-250.13
-304.18
-357.39
-404.65
-440.86
-462.34
-467.88
-458.74
-437.90
-408.78
-374.35
-336.81
-297.72
-258.47
-220.33
-184.40
-151.29
-121.03
-93.18
-67.25
-42.96
-20.43
-0.11
17.32
31.30
41.57
48.29
52.01
53.50
53.61
53.13
52.68
52.71
53.43
54.74
56.22
57.25
57.15
55.48
52.17
47.53
42.09
36.34
30.60
25.04
19.79
15.10
11.24
8.34
6.23
4.45
2.53
0.20
-2.52
-5.48
-8.66
-12.34
-16.99
-22.87
-29.83
-37.21
-44.20
-50.24
-55.29
-59.76
-64.14
-68.63
-73.00
-76.61
-78.68
-78.39
-74.92
-67.60
-56.10
-40.72
-22.51
-3.16
15.40
31.53
44.31
53.60
59.85
63.81
66.09
67.13
67.10
66.03
63.95
61.01
57.52
53.91
50.63
48.01
46.19
45.09
44.52
44.26
44.18
44.19
44.27
44.40
44.50
44.48
44.27
43.93
43.62
43.56
43.96
44.79
45.80
46.44
46.07
44.16
40.39
34.76
27.52
19.07
9.93
0.62
-8.41
-16.86
-24.72
-32.34
-40.20
-48.68
-57.73
-66.71
-74.49
-79.76
-81.53
-79.44
-73.91
-65.97
-56.84
-47.61
-38.98
-31.12
-23.83
-16.79
-9.70
-2.55
4.47
10.96
16.56
21.08
24.56
27.19
29.21
30.72
31.73
32.26
32.46
32.65
33.18
34.24
35.77
37.41
38.72
39.35
39.19
38.37
37.14
35.78
34.51
33.45
32.62
31.97
31.37
30.69
29.85
28.85
27.76
26.64
25.39
23.77
21.55
18.61
15.09
11.36
7.91
5.04
2.75
0.71
-1.58
-4.54
-8.19
-12.05
-15.18
-16.30
-14.18
-7.88
2.90
17.70
35.17
53.35
70.11
83.70
93.15
98.48
100.47
100.31
99.17
97.95
97.06
96.53
96.00
94.93
92.74
88.96
83.45
76.43
68.47
60.18
52.05
44.14
36.16
27.61
18.06
7.37
-4.25
-16.24
-27.88
-38.45
-47.40
-54.40
-59.38
-62.52
-64.18
-64.90
-65.26
-65.80
-66.86
-68.52
-70.56
-72.63
-74.34
-75.36
-75.54
-74.92
-73.83
-72.79
-72.46
-73.36
-75.78
-79.46
-83.68
-87.25
-88.84
-87.31
-82.12
-73.50
-62.54
-50.74
-39.67
-30.39
-23.26
-17.91
-13.60
-9.57
-5.31
-0.78
3.84
8.25
12.20
15.61
18.53
21.06
23.34
25.50
27.66
29.85
31.95
33.75
35.01
35.56
35.46
34.93
34.28
33.74
33.36
32.99
32.42
31.48
30.14
28.44
26.48
24.30
21.91
19.34
16.62
13.84
11.01
8.09
5.03
1.80
-1.54
-4.86
-7.99
-10.85
-13.47
-16.02
-18.72
-21.78
-25.42
-29.76
-34.72
-39.96
-44.74
-48.00
-48.66
-46.07
-40.35
-32.49
-24.06
-16.66
-11.29
-8.13
-6.55
-5.62
-4.55
-3.04
-1.28
0.34
1.50
2.14
2.42
2.52
2.54
2.44
2.26
2.23
2.81
4.49
7.49
11.58
16.11
20.36
23.86
26.58
28.81
30.91
33.00
34.95
36.50
37.51
38.09
38.53
39.16
40.14
41.48
43.05
44.76
46.55
48.36
50.09
51.59
52.62
53.01
52.67
51.65
50.21
48.65
47.35
46.61
46.58
47.22
48.33
49.54
50.43
50.70
50.31
49.60
49.37
50.62
54.25
60.59
69.11
78.44
86.73
92.31
94.21
92.38
87.50
80.66
72.91
65.01
57.42
50.37
43.90
37.83
31.81
25.28
17.73
8.89
-1.05
-11.38
-21.11
-29.24
-35.14
-38.72
-40.47
-41.16
-41.64
-42.59
-44.43
-47.44
-51.83
-57.78
-65.31
-74.14
-83.75
-93.38
-102.35
-110.22
-116.86
-122.41
-127.03
-130.68
-133.08
-133.76
-132.23
-128.31
-122.18
-114.45
-105.94
-97.54
-89.97
-83.75
-79.21
-76.52
-75.69
-76.39
-77.79
-78.62
-77.44
-73.16
-65.44
-54.94
-43.12
-31.68
-22.09
-15.04
-10.48
-7.66
-5.57
-3.23
0.03
4.45
9.86
15.84
21.85
27.35
32.03
35.74
38.58
40.82
42.90
45.30
48.43
52.54
57.59
63.30
69.22
74.94
80.23
85.12
89.84
94.68
99.92
105.82
112.55
120.13
128.36
136.79
144.84
152.13
158.67
164.90
171.30
177.91
184.07
188.51
189.90
187.46
181.39
172.67
162.59
152.07
141.29
129.73
116.54
101.03
82.79
61.69
37.69
10.70
-19.35
-52.30
-87.43
-123.41
-158.44
-190.61
-218.46
-241.28
-259.25
-273.11
-283.76
-291.86
-297.60
-300.80
-300.92
-297.36
-289.53
-277.02
-259.84
-238.55
-214.34
-188.82
-163.67
-140.17
-118.96
-100.13
-83.45
-68.84
-56.48
-46.71
-39.68
-34.99
-31.68
-28.54
-24.58
-19.47
-13.56
-7.64
-2.46
1.65
4.85
7.57
10.09
12.29
13.71
13.79
12.28
9.41
5.80
2.23
-0.75
-3.00
-4.83
-6.84
-9.59
-13.30
-17.66
-21.79
-24.46
-24.46
-21.03
-14.17
-4.69
5.99
16.36
25.22
32.07
37.13
41.06
44.64
48.37
52.33
56.18
59.43
61.69
62.86
63.11
62.69
61.77
60.35
58.35
55.78
52.84
49.88
47.26
45.12
43.36
41.62
39.52
36.86
33.65
30.19
26.89
24.05
21.79
19.96
18.25
16.34
14.01
11.27
8.28
5.29
2.47
-0.09
-2.45
-4.69
-6.93
-9.24
-11.57
-13.88
-16.09
-18.18
-20.27
-22.57
-25.37
-28.96
-33.40
-38.43
-43.40
-47.38
-49.30
-48.36
-44.28
-37.46
-28.93
-20.02
-11.98
-5.60
-1.00
2.25
4.93
7.73
11.06
14.89
18.82
22.33
24.98
26.62
27.42
27.80
28.22
29.03
30.28
31.83
33.38
34.70
35.64
36.17
36.32
36.05
35.31
34.03
32.20
29.95
27.44
24.88
22.45
20.21
18.17
16.25
14.34
12.31
10.01
7.34
4.33
1.11
-2.07
-5.02
-7.70
-10.22
-12.82
-15.78
-19.31
-23.52
-28.49
-34.14
-40.25
-46.27
-51.35
-54.42
-54.52
-51.13
-44.52
-35.68
-26.08
-17.15
-9.84
-4.36
-0.24
3.36
7.17
11.50
16.16
20.63
24.41
27.23
29.17
30.52
31.56
32.43
33.13
33.67
34.11
34.62
35.34
36.25
37.09
37.50
37.13
35.88
33.96
31.79
29.81
28.30
27.27
26.51
25.67
24.44
22.63
20.27
17.53
14.66
11.87
9.21
6.61
3.89
0.92
-2.37
-5.84
-9.33
-12.64
-15.68
-18.54
-21.50
-24.94
-29.21
-34.55
-40.84
-47.51
-53.56
-57.72
-58.87
-56.39
-50.45
-42.04
-32.66
-23.78
-16.42
-10.84
-6.67
-3.15
0.42
4.46
8.96
13.63
18.07
21.93
25.02
27.32
28.92
30.00
30.77
31.51
32.38
33.46
34.65
35.71
36.41
36.56
36.09
35.03
33.50
31.69
29.79
28.03
26.54
25.36
24.32
23.12
21.47
19.19
16.38
13.32
10.38
7.81
5.62
3.56
1.27
-1.56
-5.04
-8.98
-13.03
-16.79
-20.00
-22.65
-25.01
-27.55
-30.82
-35.25
-40.91
-47.38
-53.72
-58.58
-60.58
-58.76
-52.96
-44.02
-33.47
-23.08
-14.27
-7.67
-3.14
0.02
2.64
5.35
8.39
11.66
14.93
17.99
20.76
23.26
25.51
27.45
28.91
29.82
30.26
30.59
31.25
32.61
34.71
37.18
39.40
40.77
40.94
39.95
38.14
35.97
33.84
32.01
30.56
29.37
28.13
26.35
23.54
19.41
14.14
8.39
3.03
-1.27
-4.37
-6.87
-9.86
-14.43
-21.25
-30.32
-41.01
-52.22
-62.63
-70.93
-76.03
-77.29
-74.72
-69.18
-62.13
-55.23
-49.76
-46.19
-44.03
-42.24
-39.70
-35.82
-30.68
-24.86
-19.17
-14.16
-10.00
-6.49
-3.32
-0.20
3.06
6.53
10.28
14.32
18.62
23.03
27.30
31.18
34.46
37.11
39.26
41.18
43.25
45.87
49.36
53.85
59.18
64.90
70.36
74.90
77.96
79.22
78.55
75.94
71.46
65.22
57.33
47.91
37.10
25.04
11.96
-1.83
-15.86
-29.63
-42.56
-54.03
-63.27
-69.43
-71.75
-69.82
-63.98
-55.33
-45.52
-36.12
-28.15
-21.73
-16.31
-11.06
-5.37
0.91
7.45
13.74
19.29
23.79
27.13
29.30
30.44
30.77
30.66
30.58
30.98
32.18
34.24
36.96
39.94
42.72
44.93
46.39
47.12
47.33
47.24
47.02
46.70
46.25
45.62
44.82
43.95
43.06
42.12
41.00
39.42
37.14
33.98
29.87
24.86
19.11
12.86
6.44
0.18
-5.54
-10.45
-14.50
-17.76
-20.29
-21.80
-21.52
-18.14
-10.27
3.06
21.87
45.11
71.01
97.66
123.69
148.63
172.78
196.74
220.69
244.03
265.25
282.30
293.19
296.58
292.24
281.06
264.77
245.38
224.53
203.17
181.49
159.18
135.86
111.38
85.90
59.77
33.26
6.43
-20.96
-49.23
-78.61
-109.13
-140.81
-173.83
-208.61
-245.45
-283.88
-322.13
-357.16
-385.43
-404.14
-412.20
-410.59
-401.74
-388.43
-372.82
-356.17
-339.04
-322.02
-305.93
-291.67
-279.63
-269.05
-258.16
-244.68
-226.90
-204.46
-178.69
-152.18
-127.73
-107.31
-91.36
-78.87
-68.06
-57.30
-45.76
-33.55
-21.33
-9.75
0.84
10.50
19.34
27.37
34.28
39.72
43.41
45.37
45.97
45.69
44.96
44.02
42.87
41.33
39.17
36.27
32.77
29.07
25.81
23.64
23.02
24.07
26.51
29.86
33.64
37.58
41.60
45.66
49.64
53.25
56.13
57.95
58.59
58.15
56.80
54.78
52.24
49.34
46.25
43.13
40.10
37.22
34.68
32.92
32.87
35.75
42.68
54.18
69.74
87.86
106.38
122.94
135.40
141.88
140.69
130.44
110.43
81.26
45.25
6.29
-30.96
-62.21
-84.58
-97.01
-100.08
-95.33
-84.76
-70.38
-54.09
-37.70
-22.75
-10.25
-0.48
7.02
13.16
18.89
24.78
30.92
36.95
42.38
46.82
50.15
52.64
54.80
57.15
60.06
63.48
66.99
69.88
71.50
71.67
70.74
69.60
69.24
70.24
72.40
74.69
75.64
73.72
67.80
57.18
41.55
20.92
-4.16
-32.35
-61.37
-88.38
-110.70
-126.65
-135.90
-139.25
-137.92
-132.96
-125.02
-114.58
-102.44
-89.87
-78.39
-69.21
-62.82
-58.95
-56.87
-55.87
-55.59
-55.91
-56.78
-57.87
-58.56
-58.21
-56.41
-53.36
-49.80
-46.70
-44.86
-44.46
-45.00
-45.56
-45.15
-43.11
-39.27
-34.01
-28.03
-22.19
-17.34
-14.14
-12.93
-13.66
-15.85
-18.74
-21.53
-23.53
-24.32
-23.76
-21.89
-18.91
-15.22
-11.35
-7.94
-5.56
-4.59
-5.07
-6.69
-8.82
-10.71
-11.55
-10.66
-7.70
-2.72
3.84
11.24
18.69
25.48
31.16
35.50
38.51
40.37
41.30
41.58
41.44
41.12
40.94
41.31
42.64
45.19
48.92
53.36
57.73
61.29
63.54
64.45
64.35
63.62
62.47
60.87
58.70
55.91
52.65
49.25
46.02
43.19
40.83
38.86
37.09
35.28
33.16
30.59
27.66
24.66
21.94
19.70
17.72
15.45
12.21
7.54
1.47
-5.45
-12.40
-18.62
-23.74
-27.89
-31.62
-35.72
-40.95
-47.85
-56.40
-65.94
-75.14
-82.28
-85.74
-84.58
-78.89
-69.76
-59.00
-48.41
-39.30
-32.12
-26.53
-21.74
-16.93
-11.62
-5.82
0.12
5.64
10.26
13.77
16.25
18.03
19.56
21.15
22.93
24.80
26.61
28.20
29.51
30.58
31.42
31.94
31.98
31.39
30.11
28.30
26.23
24.27
22.61
21.22
19.89
18.31
16.22
13.59
10.56
7.38
4.27
1.36
-1.37
-4.05
-6.80
-9.65
-12.49
-15.18
-17.59
-19.79
-22.03
-24.82
-28.71
-34.21
-41.42
-49.80
-58.15
-64.72
-67.69
-65.81
-58.87
-47.90
-34.85
-21.95
-10.96
-2.69
3.09
7.30
11.05
15.18
20.00
25.33
30.70
35.59
39.60
42.54
44.44
45.50
46.02
46.30
46.62
47.16
48.00
49.11
50.32
51.34
51.86
51.59
50.41
48.38
45.76
42.84
39.87
36.88
33.76
30.30
26.31
21.81
16.99
12.14
7.54
3.24
-0.95
-5.47
-10.80
-17.29
-24.85
-32.90
-40.34
-45.74
-47.82
-45.77
-39.65
-30.35
-19.39
-8.41
1.31
9.13
15.17
20.01
24.37
28.74
33.26
37.70
41.65
44.70
46.59
47.32
47.05
46.10
44.82
43.47
42.26
41.29
40.61
40.22
40.07
40.01
39.80
39.14
37.76
35.51
32.44
28.78
24.87
21.07
17.64
14.68
12.07
9.60
6.98
4.02
0.68
-2.84
-6.23
-9.15
-11.42
-13.19
-14.86
-16.90
-19.70
-23.26
-27.27
-31.16
-34.34
-36.43
-37.28
-37.12
-36.44
-35.89
-36.19
-37.97
-41.51
-46.64
-52.61
-58.19
-61.98
-62.73
-59.69
-52.79
-42.55
-29.85
-15.61
-0.46
15.42
32.18
50.03
68.84
87.77
105.27
119.42
128.57
131.94
129.92
123.93
115.83
107.24
99.06
91.41
83.89
76.00
67.49
58.53
49.63
41.50
34.82
29.99
27.04
25.59
24.98
24.53
23.77
22.56
21.06
19.54
18.29
17.55
17.46
18.03
19.07
20.13
20.60
19.81
17.32
13.04
7.20
0.29
-7.14
-14.58
-21.63
-28.05
-33.83
-39.23
-44.68
-50.58
-57.02
-63.65
-69.64
-73.95
-75.52
-73.53
-67.53
-57.60
-44.36
-29.03
-13.23
1.37
13.39
22.11
27.41
29.58
29.02
26.12
21.22
14.73
7.23
-0.66
-8.38
-15.50
-21.68
-26.57
-29.85
-31.37
-31.27
-30.01
-28.17
-26.20
-24.25
-22.15
-19.67
-16.69
-13.39
-10.13
-7.28
-5.10
-3.65
-2.81
-2.35
-2.07
-1.83
-1.64
-1.71
-2.32
-3.75
-6.07
-9.12
-12.62
-16.28
-19.87
-23.30
-26.44
-29.11
-31.14
-32.46
-33.31
-34.23
-35.86
-38.70
-42.76
-47.50
-51.83
-54.54
-54.59
-51.51
-45.54
-37.55
-28.66
-19.98
-12.28
-5.87
-0.71
3.47
6.99
10.17
13.28
16.53
20.00
23.53
26.77
29.25
30.60
30.74
29.92
28.68
27.66
27.32
27.81
28.97
30.41
31.62
32.18
31.76
30.16
27.36
23.43
18.61
13.26
7.83
2.73
-1.78
-5.62
-8.90
-11.77
-14.24
-16.22
-17.51
-18.03
-17.95
-17.66
-17.69
-18.39
-19.71
-21.23
-22.35
-22.63
-22.03
-21.01
-20.29
-20.57
-22.19
-24.97
-28.29
-31.24
-32.88
-32.42
-29.48
-24.06
-16.67
-8.17
0.38
7.99
13.99
18.16
20.77
22.43
23.87
25.68
28.16
31.21
34.41
37.16
38.96
39.51
38.92
37.66
36.40
35.77
36.11
37.42
39.37
41.46
43.23
44.30
44.44
43.44
41.05
37.08
31.48
24.54
16.84
9.18
2.21
-3.73
-8.72
-13.07
-17.04
-20.72
-23.97
-26.61
-28.62
-30.34
-32.22
-34.64
-37.51
-40.19
-41.61
-40.73
-37.00
-30.70
-22.86
-14.89
-8.01
-2.86
0.57
2.69
3.90
4.29
3.68
1.78
-1.44
-5.65
-10.19
-14.28
-17.29
-18.90
-19.11
-18.15
-16.37
-14.16
-11.88
-9.83
-8.28
-7.42
-7.35
-8.03
-9.34
-11.13
-13.20
-15.46
-17.88
-20.48
-23.24
-26.02
-28.60
-30.80
-32.54
-33.91
-35.12
-36.47
-38.18
-40.39
-43.04
-45.77
-47.94
-48.69
-47.16
-42.94
-36.24
-27.99
-19.53
-12.13
-6.53
-2.74
-0.21
1.90
4.22
7.00
10.08
13.01
15.30
16.63
16.93
16.44
15.65
15.20
15.68
17.51
20.83
25.42
30.77
36.15
40.82
44.29
46.47
47.73
48.70
49.99
51.81
53.87
55.50
55.97
54.89
52.36
48.93
45.34
42.25
40.02
38.62
37.73
36.80
35.18
32.17
27.22
20.14
11.38
2.11
-5.89
-10.70
-10.99
-6.63
1.11
9.86
17.03
20.65
20.04
15.80
9.32
2.12
-4.66
-10.41
-14.84
-17.78
-19.06
-18.62
-16.74
-14.09
-11.55
-9.88
-9.45
-10.11
-11.38
-12.68
-13.58
-13.99
-14.06
-14.08
-14.32
-14.93
-15.91
-17.21
-18.76
-20.57
-22.66
-25.02
-27.50
-29.90
-32.03
-33.94
-36.02
-38.95
-43.52
-50.24
-59.06
-69.18
-79.07
-86.90
-90.92
-90.07
-84.21
-74.28
-62.01
-49.45
-38.43
-30.07
-24.57
-21.32
-19.20
-17.06
-14.16
-10.27
-5.68
-0.93
3.49
7.34
10.65
13.63
16.41
18.95
21.07
22.69
23.88
24.87
25.93
27.05
27.88
27.75
25.91
21.93
15.83
8.17
-0.17
-8.28
-15.55
-21.79
-27.12
-31.90
-36.37
-40.65
-44.63
-48.07
-50.69
-52.15
-52.05
-49.95
-45.47
-38.49
-29.37
-18.95
-8.35
1.37
9.55
16.03
21.15
25.35
29.07
32.49
35.61
38.27
40.30
41.57
42.07
41.87
41.18
40.31
39.55
39.08
38.98
39.24
39.84
40.78
42.02
43.41
44.58
45.06
44.52
42.94
40.69
38.40
36.69
35.81
35.54
35.35
34.64
33.03
30.61
27.81
25.24
23.32
22.11
21.23
20.05
18.08
15.15
11.60
8.06
5.15
3.14
1.86
0.72
-0.96
-3.81
-8.17
-14.07
-21.10
-28.46
-34.97
-39.22
-40.05
-36.91
-30.18
-21.12
-11.45
-2.83
3.65
7.70
9.74
10.56
11.01
11.67
12.77
14.21
15.75
17.05
17.90
18.21
17.97
17.30
16.36
15.32
14.40
13.79
13.62
13.89
14.42
14.93
15.07
14.63
13.53
11.86
9.85
7.70
5.61
3.70
2.01
0.58
-0.61
-1.64
-2.62
-3.75
-5.24
-7.28
-9.82
-12.64
-15.39
-17.70
-19.37
-20.47
-21.28
-22.17
-23.52
-25.58
-28.49
-32.20
-36.37
-40.32
-43.02
-43.29
-40.16
-33.36
-23.56
-12.24
-1.28
7.72
13.87
17.20
18.39
18.37
17.94
17.52
17.24
17.05
16.97
17.05
17.41
18.05
18.81
19.46
19.79
19.85
19.88
20.30
21.42
23.30
25.70
28.14
30.18
31.62
32.58
33.42
34.52
36.04
37.91
39.77
41.15
41.65
41.09
39.61
37.69
36.07
35.39
35.96
37.65
39.85
41.82
42.97
43.07
42.24
40.68
38.44
35.27
30.79
24.78
17.45
9.33
1.13
-6.58
-13.36
-18.77
-22.13
-22.63
-19.65
-13.40
-5.17
2.89
8.70
11.15
10.74
9.24
8.81
10.96
15.90
22.66
29.77
36.02
40.93
44.78
48.17
51.70
55.62
59.89
64.29
68.67
72.97
77.28
81.67
86.05
89.99
92.81
93.87
92.90
90.30
87.09
84.57
83.74
84.93
87.73
91.27
94.63
97.13
98.34
97.84
95.09
89.52
80.84
69.31
55.82
41.55
27.50
13.93
0.28
-14.67
-32.17
-52.90
-76.33
-100.69
-123.19
-140.75
-150.97
-152.86
-147.28
-136.62
-123.94
-112.10
-102.89
-96.75
-92.95
-90.18
-87.08
-82.64
-76.48
-68.79
-60.19
-51.38
-42.80
-34.40
-25.60
-15.61
-3.85
9.69
24.27
38.59
51.22
60.98
67.16
69.49
68.03
63.06
55.08
44.78
32.82
19.30
3.45
-16.21
-40.82
-69.93
-100.73
-128.49
-148.37
-157.48
-156.36
-148.70
-139.49
-132.77
-130.09
-130.52
-131.86
-132.30
-131.35
-129.66
-128.32
-127.96
-128.58
-129.85
-131.51
-133.47
-135.56
-137.12
-136.80
-132.77
-123.53
-108.56
-88.82
-66.61
-44.83
-26.15
-12.20
-3.32
1.35
3.27
4.03
4.84
6.35
8.60
11.24
13.75
15.68
16.82
17.19
17.02
16.60
16.21
16.05
16.17
16.49
16.77
16.67
15.85
14.12
11.49
8.24
4.78
1.51
-1.40
-4.04
-6.76
-10.00
-14.04
-18.86
-24.13
-29.29
-33.82
-37.49
-40.48
-43.37
-46.96
-51.97
-58.72
-66.92
-75.50
-82.83
-87.10
-86.90
-81.78
-72.53
-61.04
-49.72
-40.71
-35.19
-33.19
-33.79
-35.71
-37.91
-39.91
-41.79
-43.93
-46.69
-50.16
-54.19
-58.48
-62.76
-66.91
-70.96
-74.95
-78.87
-82.50
-85.50
-87.54
-88.39
-88.03
-86.55
-83.96
-80.11
-74.70
-67.48
-58.54
-48.43
-38.00
-28.09
-19.29
-11.71
-5.21
0.38
5.05
8.60
10.64
10.86
8.99
4.87
-1.40
-9.25
-17.46
-24.20
-27.52
-26.13
-20.07
-11.00
-1.79
4.41
5.13
-0.60
-11.92
-26.33
-40.23
-49.86
-52.29
-46.38
-33.19
-15.65
2.46
18.00
29.72
38.68
47.72
59.99
77.45
99.94
125.17
149.72
170.33
184.94
192.99
195.14
192.48
185.99
176.38
164.40
151.22
138.47
127.82
120.28
115.60
112.30
108.26
101.76
92.32
80.95
69.54
60.01
53.33
49.19
46.10
41.91
34.25
21.08
1.11
-25.70
-57.66
-91.38
-122.29
-145.81
-158.75
-160.20
-151.72
-136.56
-118.48
-100.57
-84.64
-71.20
-59.88
-49.93
-40.64
-31.63
-22.71
-13.91
-5.22
3.36
11.82
20.15
28.11
35.37
41.57
46.50
50.15
52.72
54.43
55.44
55.75
55.28
53.98
52.03
49.86
48.02
46.93
46.65
46.77
46.55
45.21
42.22
37.55
31.59
24.99
18.34
11.96
5.74
-0.77
-8.18
-16.98
-27.21
-38.20
-48.54
-56.35
-59.71
-57.35
-49.10
-36.05
-20.25
-4.03
10.66
22.81
32.36
39.95
46.37
52.14
57.32
61.66
64.82
66.69
67.39
67.24
66.57
65.57
64.27
62.67
60.85
59.08
57.67
56.94
56.90
57.25
57.37
56.53
54.19
50.19
44.83
38.75
32.67
27.09
22.14
17.63
13.15
8.21
2.36
-4.71
-13.09
-22.41
-31.69
-39.37
-43.69
-43.18
-37.30
-26.70
-13.03
1.54
15.06
26.29
34.81
40.87
44.96
47.55
48.95
49.35
48.95
48.05
47.01
46.20
45.81
45.87
46.15
46.36
46.26
45.75
44.97
44.10
43.26
42.33
40.90
38.50
34.73
29.54
23.35
16.91
11.05
6.31
2.80
0.07
-2.64
-6.16
-11.16
-17.85
-25.85
-34.23
-41.56
-46.21
-46.80
-42.60
-33.83
-21.63
-7.78
5.84
17.75
27.23
34.32
39.57
43.70
47.25
50.46
53.31
55.61
57.22
58.08
58.27
57.93
57.22
56.29
55.26
54.25
53.39
52.80
52.52
52.42
52.22
51.52
49.96
47.30
43.65
39.39
35.14
31.47
28.71
26.83
25.49
24.22
22.68
20.76
18.61
16.46
14.49
12.61
10.58
8.09
5.03
1.56
-1.99
-5.20
-7.92
-10.26
-12.64
-15.51
-19.17
-23.59
-28.42
-33.15
-37.38
-40.90
-43.85
-46.56
-49.46
-53.04
-57.60
-63.26
-69.69
-76.03
-80.92
-82.73
-80.14
-72.62
-60.80
-46.33
-31.40
-18.00
-7.27
0.62
6.33
10.80
14.82
18.76
22.65
26.29
29.50
32.16
34.20
35.58
36.25
36.26
35.72
34.87
34.00
33.38
33.17
33.36
33.73
34.02
33.90
33.15
31.72
29.71
27.34
24.85
22.43
20.17
18.03
15.95
13.83
11.65
9.45
7.35
5.49
3.99
2.81
1.74
0.47
-1.26
-3.53
-6.18
-8.84
-11.15
-12.87
-14.10
-15.12
-16.33
-18.00
-20.19
-22.78
-25.54
-28.26
-30.81
-33.19
-35.51
-37.95
-40.74
-44.11
-48.15
-52.59
-56.75
-59.57
-59.88
-56.80
-50.16
-40.68
-29.73
-19.01
-9.87
-3.07
1.38
3.99
5.48
6.52
7.56
8.83
10.36
12.09
13.81
15.30
16.39
16.98
17.13
16.99
16.74
16.51
16.36
16.28
16.30
16.41
16.55
16.57
16.25
15.41
14.00
12.19
10.30
8.65
7.44
6.68
6.19
5.76
5.18
4.35
3.22
1.84
0.26
-1.46
-3.23
-4.95
-6.50
-7.84
-9.00
-10.11
-11.35
-12.86
-14.73
-16.93
-19.32
-21.72
-23.92
-25.82
-27.34
-28.58
-29.69
-30.97
-32.76
-35.30
-38.56
-42.05
-44.84
-45.81
-44.05
-39.24
-31.87
-23.05
-14.18
-6.54
-0.89
2.58
4.25
4.79
4.92
5.20
5.92
7.06
8.34
9.39
9.91
9.79
9.08
8.02
6.85
5.80
4.99
4.51
4.39
4.63
5.17
5.83
6.36
6.56
6.29
5.58
4.59
3.54
2.61
1.90
1.40
1.06
0.76
0.41
-0.12
-0.93
-2.07
-3.53
-5.17
-6.78
-8.15
-9.23
-10.09
-10.95
-12.00
-13.30
-14.74
-16.12
-17.28
-18.13
-18.75
-19.29
-19.95
-20.89
-22.25
-24.15
-26.59
-29.37
-31.98
-33.68
-33.69
-31.46
-26.97
-20.73
-13.70
-6.92
-1.25
2.89
5.50
6.96
7.72
8.26
8.86
9.62
10.48
11.28
11.81
11.96
11.69
11.08
10.27
9.43
8.68
8.07
7.66
7.42
7.32
7.29
7.21
6.95
6.40
5.49
4.31
3.03
1.87
1.02
0.54
0.31
0.11
-0.29
-0.98
-1.87
-2.73
-3.36
-3.66
-3.77
-3.95
-4.44
-5.35
-6.57
-7.87
-9.05
-10.00
-10.73
-11.34
-11.93
-12.69
-13.80
-15.46
-17.75
-20.45
-22.96
-24.43
-24.04
-21.32
-16.44
-10.14
-3.50
2.41
6.84
9.52
10.61
10.57
9.95
9.26
8.81
8.74
9.00
9.43
9.84
10.13
10.22
10.11
9.79
9.28
8.62
7.94
7.41
7.12
7.09
7.18
7.13
6.77
5.97
4.82
3.51
2.32
1.45
1.00
0.90
0.93
0.83
0.34
-0.68
-2.19
-3.99
-5.79
-7.34
-8.47
-9.21
-9.68
-10.08
-10.59
-11.35
-12.41
-13.70
-15.06
-16.30
-17.26
-17.92
-18.44
-19.14
-20.40
-22.39
-25.01
-27.71
-29.63
-29.86
-27.75
-23.21
-16.80
-9.55
-2.65
2.94
6.74
8.79
9.54
9.59
9.44
9.45
9.71
10.21
10.80
11.31
11.60
11.53
11.12
10.46
9.72
9.05
8.53
8.13
7.76
7.32
6.75
6.00
5.08
4.00
2.75
1.29
-0.38
-2.26
-4.28
-6.34
-8.34
-10.19
-11.88
-13.42
-14.96
-16.63
-18.52
-20.57
-22.63
-24.55
-26.20
-27.65
-29.03
-30.47
-31.91
-33.06
-33.46
-32.53
-29.83
-25.03
-17.98
-8.64
2.95
16.58
31.79
47.85
63.90
79.21
93.45
106.74
119.50
132.02
144.22
155.44
164.61
170.68
173.08
172.03
168.49
163.85
159.38
155.96
153.98
153.49
154.40
156.38
158.69
159.98
158.32
151.71
138.84
119.55
94.96
66.78
36.65
5.63
-25.68
-56.49
-85.32
-110.01
-128.30
-138.76
-141.44
-137.91
-130.68
-122.33
-114.66
-108.36
-103.14
-98.07
-92.14
-84.61
-75.36
-64.98
-54.73
-46.29
-41.30
-40.95
-45.55
-54.43
-66.01
-78.14
-88.56
-95.30
-97.02
-93.29
-84.65
-72.51
-58.90
-45.95
-35.39
-28.08
-23.91
-21.97
-21.01
-19.96
-18.27
-16.03
-13.73
-11.95
-11.04
-11.04
-11.62
-12.29
-12.50
-11.86
-10.19
-7.54
-4.18
-0.48
3.11
6.21
8.45
9.59
9.56
8.45
6.49
4.03
1.37
-1.25
-3.78
-6.31
-9.01
-12.07
-15.58
-19.52
-23.78
-28.17
-32.49
-36.56
-40.19
-43.27
-45.72
-47.56
-48.97
-50.28
-51.86
-53.96
-56.40
-58.42
-58.86
-56.48
-50.67
-41.77
-31.09
-20.48
-11.63
-5.42
-1.78
0.10
1.26
2.43
3.84
5.33
6.57
7.25
7.22
6.41
4.87
2.68
0.06
-2.71
-5.37
-7.77
-9.92
-11.88
-13.66
-15.21
-16.48
-17.65
-19.20
-21.75
-25.74
-30.97
-36.45
-40.68
-42.20
-40.23
-34.83
-26.74
-17.04
-6.70
3.46
12.76
20.61
26.67
31.09
34.78
39.24
45.93
55.54
67.26
78.86
87.31
89.93
85.47
74.61
59.54
42.99
26.92
11.83
-3.12
-19.15
-36.65
-54.36
-69.53
-78.99
-80.61
-74.39
-62.57
-48.74
-36.29
-27.25
-22.03
-19.84
-19.73
-21.05
-23.49
-26.58
-29.35
-30.42
-28.65
-23.72
-16.34
-7.69
1.35
10.83
21.60
34.49
49.30
64.33
77.01
85.10
88.00
87.34
86.30
88.13
94.56
104.89
116.36
125.48
129.71
128.34
122.43
113.78
103.86
93.21
81.71
69.23
56.29
43.99
33.59
25.76
20.21
15.83
11.32
5.93
-0.19
-6.08
-10.50
-12.60
-12.36
-10.55
-8.45
-7.22
-7.47
-9.04
-11.08
-12.34
-11.40
-7.04
1.48
14.20
30.27
47.97
65.17
79.82
90.65
97.48
101.11
102.85
103.92
105.04
106.35
107.66
108.80
109.66
110.09
109.52
106.92
100.80
89.80
73.20
51.34
25.70
-1.53
-28.03
-51.95
-72.22
-88.56
-101.18
-110.56
-117.09
-121.13
-122.98
-122.92
-121.30
-118.50
-114.99
-111.21
-107.59
-104.36
-101.50
-98.64
-95.17
-90.51
-84.38
-77.15
-69.71
-63.28
-58.90
-57.08
-57.70
-60.06
-63.28
-66.57
-69.37
-71.53
-73.27
-75.17
-78.03
-82.53
-88.70
-95.61
-101.34
-103.55
-100.41
-91.54
-78.40
-63.97
-51.71
-44.33
-42.89
-46.45
-52.46
-57.48
-58.25
-52.53
-39.71
-20.95
1.19
23.44
42.70
56.75
64.67
66.78
64.37
59.20
53.01
47.21
42.59
39.40
37.37
35.88
34.06
30.95
25.56
17.19
5.65
-8.48
-23.81
-38.57
-51.09
-60.43
-66.57
-70.30
-72.69
-74.60
-76.42
-78.18
-79.92
-81.89
-84.59
-88.46
-93.47
-98.96
-103.60
-105.87
-104.48
-98.84
-89.21
-76.64
-62.65
-48.86
-36.61
-26.57
-18.72
-12.37
-6.54
-0.45
6.18
13.05
19.54
25.02
29.21
32.24
34.55
36.53
38.44
40.27
41.92
43.31
44.49
45.58
46.62
47.48
47.92
47.63
46.46
44.48
42.01
39.43
37.10
35.14
33.48
31.91
30.22
28.34
26.31
24.19
21.92
19.30
16.05
12.02
7.36
2.49
-2.05
-5.87
-8.90
-11.50
-14.23
-17.67
-22.09
-27.31
-32.75
-37.43
-40.29
-40.40
-37.27
-31.04
-22.54
-13.09
-4.12
3.24
8.44
11.57
13.24
14.17
15.01
16.14
17.63
19.31
20.94
22.33
23.39
24.18
24.82
25.44
26.15
26.94
27.79
28.60
29.29
29.78
29.96
29.76
29.14
28.13
26.85
25.44
24.01
22.52
20.79
18.57
15.65
12.02
7.91
3.75
-0.02
-3.17
-5.78
-8.27
-11.24
-15.24
-20.63
-27.32
-34.83
-42.15
-47.93
-50.77
-49.61
-44.12
-34.92
-23.40
-11.30
-0.19
8.97
15.93
20.99
24.72
27.72
30.40
32.98
35.42
37.55
39.10
39.82
39.65
38.72
37.34
35.87
34.57
33.54
32.77
32.16
31.63
31.03
30.15
28.76
26.62
23.60
19.81
15.52
11.14
7.04
3.48
0.49
-2.06
-4.42
-6.85
-9.53
-12.54
-15.87
-19.45
-23.16
-26.93
-30.68
-34.41
-38.26
-42.46
-47.40
-53.51
-61.04
-69.80
-79.02
-87.30
-92.97
-94.47
-90.92
-82.39
-69.88
-55.05
-39.75
-25.50
-13.25
-3.19
5.02
12.01
18.37
24.43
30.25
35.68
40.46
44.37
47.27
49.06
49.70
49.22
47.76
45.66
43.34
41.23
39.65
38.75
38.43
38.47
38.57
38.50
38.08
37.30
36.29
35.31
34.62
34.41
34.67
35.29
35.98
36.49
36.61
36.22
35.25
33.68
31.55
28.97
26.12
23.24
20.55
18.10
15.73
13.13
9.94
5.90
0.97
-4.62
-10.46
-16.10
-21.23
-25.78
-29.98
-34.26
-39.17
-45.14
-52.31
-60.39
-68.49
-75.25
-79.00
-78.29
-72.36
-61.52
-47.14
-31.27
-16.06
-3.00
7.34
15.37
21.94
27.83
33.36
38.30
42.14
44.49
45.34
45.08
44.30
43.50
42.96
42.67
42.55
42.49
42.50
42.64
42.89
43.10
42.95
42.11
40.35
37.73
34.59
31.46
28.90
27.25
26.53
26.45
26.59
26.61
26.32
25.79
25.20
24.70
24.40
24.29
24.33
24.50
24.75
25.08
25.43
25.64
25.43
24.48
22.48
19.25
14.89
9.65
3.92
-1.97
-7.84
-13.72
-19.77
-26.21
-33.21
-40.86
-48.92
-56.76
-63.22
-66.83
-66.17
-60.45
-49.91
-35.87
-20.31
-5.19
8.12
19.11
27.96
35.15
41.13
46.12
50.23
53.45
55.82
57.30
57.76
56.95
54.73
51.12
46.53
41.64
37.15
33.61
31.21
29.83
29.16
28.84
28.50
27.87
26.76
25.09
22.97
20.69
18.64
17.18
16.50
16.52
16.99
17.55
17.89
17.98
18.05
18.64
20.40
23.84
29.05
35.58
42.43
48.31
52.11
53.19
51.49
47.34
41.13
33.02
22.94
10.74
-3.48
-19.21
-35.57
-51.47
-65.84
-77.80
-86.63
-91.79
-92.88
-89.91
-83.41
-74.46
-64.61
-55.32
-47.66
-41.98
-38.02
-35.13
-32.68
-30.28
-27.83
-25.44
-23.28
-21.47
-20.07
-19.14
-18.68
-18.62
-18.76
-18.81
-18.44
-17.43
-15.81
-13.88
-12.10
-11.01
-10.95
-12.02
-14.03
-16.55
-19.07
-21.12
-22.41
-22.77
-22.25
-21.03
-19.36
-17.42
-15.35
-13.11
-10.63
-7.94
-5.23
-2.84
-1.24
-0.76
-1.47
-3.10
-5.12
-6.96
-8.15
-8.46
-7.89
-6.57
-4.71
-2.42
0.23
3.28
6.87
11.15
16.32
22.51
29.74
37.75
45.91
53.22
58.47
60.54
58.77
53.22
44.69
34.45
23.91
14.19
5.96
-0.58
-5.52
-9.13
-11.67
-13.37
-14.41
-14.98
-15.23
-15.30
-15.28
-15.15
-14.88
-14.39
-13.71
-12.91
-12.18
-11.74
-11.71
-12.08
-12.74
-13.54
-14.38
-15.24
-16.06
-16.77
-17.19
-17.26
-16.99
-16.63
-16.47
-16.79
-17.60
-18.74
-19.83
-20.56
-20.74
-20.45
-19.90
-19.39
-19.18
-19.43
-20.17
-21.28
-22.57
-23.89
-25.14
-26.33
-27.64
-29.27
-31.39
-34.03
-36.92
-39.47
-40.80
-39.95
-36.16
-29.24
-19.75
-8.88
1.85
11.10
18.06
22.67
25.36
26.87
27.78
28.41
28.74
28.50
27.43
25.45
22.70
19.58
16.59
14.16
12.58
11.89
12.03
12.78
13.89
15.10
16.13
16.71
16.63
15.74
14.05
11.75
9.13
6.50
4.15
2.25
0.85
-0.05
-0.54
-0.81
-1.10
-1.72
-2.93
-4.80
-7.21
-9.82
-12.27
-14.34
-16.05
-17.68
-19.61
-22.25
-25.84
-30.45
-35.75
-41.07
-45.34
-47.30
-45.92
-40.80
-32.49
-22.32
-12.04
-3.16
3.47
7.82
10.49
12.26
13.78
15.32
16.89
18.32
19.52
20.42
21.02
21.32
21.35
21.18
20.88
20.58
20.40
20.40
20.63
21.03
21.44
21.60
21.23
20.12
18.23
15.73
13.03
10.55
8.65
7.45
6.75
6.14
5.15
3.37
0.68
-2.72
-6.34
-9.60
-12.03
-13.59
-14.57
-15.53
-17.01
-19.23
-22.07
-25.15
-28.08
-30.66
-32.94
-35.21
-37.79
-41.03
-45.18
-50.33
-56.35
-62.61
-67.96
-70.90
-69.97
-64.42
-54.54
-41.76
-28.18
-15.89
-6.25
0.43
4.72
7.66
10.22
12.99
16.04
19.14
21.95
24.20
25.77
26.64
26.93
26.79
26.45
26.13
25.98
26.07
26.34
26.72
27.13
27.49
27.71
27.66
27.22
26.28
24.90
23.30
21.83
20.82
20.42
20.52
20.79
20.81
20.28
19.13
17.48
15.60
13.67
11.67
9.36
6.43
2.62
-2.07
-7.36
-12.80
-17.90
-22.32
-25.98
-29.01
-31.72
-34.54
-37.95
-42.45
-48.42
-55.82
-63.97
-71.54
-76.74
-77.82
-73.73
-64.54
-51.52
-36.76
-22.54
-10.62
-1.81
4.15
8.21
11.56
15.10
19.19
23.66
28.04
31.88
34.96
37.28
38.92
39.95
40.37
40.20
39.62
38.97
38.68
39.08
40.20
41.73
43.08
43.65
42.96
40.85
37.53
33.51
29.39
25.78
23.00
21.10
19.83
18.79
17.59
16.00
13.98
11.72
9.46
7.44
5.69
4.06
2.22
-0.23
-3.60
-8.00
-13.26
-19.03
-24.92
-30.58
-35.89
-40.91
-45.92
-51.34
-57.57
-64.75
-72.54
-79.90
-85.25
-86.85
-83.40
-74.55
-61.12
-44.94
-28.26
-13.15
-0.93
8.02
14.14
18.40
21.80
25.13
28.74
32.59
36.31
39.51
41.92
43.45
44.19
44.34
44.10
43.65
43.13
42.67
42.28
41.90
41.43
40.67
39.54
37.98
36.06
33.84
31.39
28.81
26.26
23.99
22.25
21.24
20.98
21.39
22.45
24.31
27.31
31.64
37.15
43.12
48.35
51.55
51.81
48.81
42.85
34.47
24.12
11.94
-2.16
-18.21
-35.90
-54.50
-72.97
-90.25
-105.42
-117.80
-126.69
-131.37
-131.01
-125.09
-113.74
-98.08
-80.02
-61.87
-45.58
-32.26
-21.98
-14.00
-7.26
-0.83
5.76
12.60
19.39
25.76
31.34
35.85
39.21
41.48
42.82
43.51
43.81
43.99
44.28
44.85
45.73
46.81
47.80
48.29
47.88
46.33
43.68
40.23
36.47
32.90
29.85
27.37
25.27
23.28
21.15
18.77
16.21
13.59
10.99
8.35
5.47
2.08
-2.06
-6.98
-12.50
-18.25
-23.84
-29.02
-33.81
-38.50
-43.62
-49.76
-57.32
-66.27
-75.88
-84.73
-90.92
-92.60
-88.60
-78.96
-65.02
-49.06
-33.58
-20.50
-10.66
-3.75
1.29
5.75
10.63
16.25
22.44
28.62
34.19
38.71
41.99
44.09
45.18
45.53
45.37
45.00
44.69
44.65
44.91
45.37
45.73
45.61
44.65
42.61
39.53
35.65
31.48
27.53
24.21
21.64
19.66
17.89
15.91
13.48
10.63
7.66
4.98
2.91
1.51
0.55
-0.36
-1.63
-3.50
-5.92
-8.64
-11.40
-14.06
-16.77
-19.91
-23.95
-29.26
-35.98
-43.92
-52.57
-61.05
-68.18
-72.56
-72.90
-68.44
-59.27
-46.42
-31.66
-16.91
-3.70
7.19
15.84
22.90
29.08
34.90
40.48
45.63
50.08
53.69
56.55
58.92
61.14
63.39
65.66
67.75
69.46
70.67
71.48
72.10
72.75
73.39
73.67
73.10
71.16
67.58
62.55
56.60
50.52
45.03
40.55
37.06
34.07
30.89
26.88
21.71
15.49
8.62
1.65
-5.06
-11.41
-17.54
-23.68
-29.88
-35.96
-41.49
-46.02
-49.24
-51.16
-52.13
-52.74
-53.67
-55.56
-58.81
-63.48
-69.11
-74.65
-78.63
-79.42
-75.79
-67.35
-54.83
-39.85
-24.39
-10.11
2.14
12.35
21.05
28.81
35.90
42.25
47.54
51.50
53.97
54.91
54.31
52.17
48.60
43.89
38.58
33.43
29.18
26.31
24.87
24.54
24.74
24.78
24.11
22.38
19.56
15.93
12.00
8.31
5.18
2.57
0.19
-2.43
-5.56
-9.17
-12.90
-16.32
-19.17
-21.47
-23.62
-26.22
-29.89
-35.02
-41.62
-49.17
-56.59
-62.43
-65.14
-63.65
-57.70
-48.05
-36.25
-24.20
-13.47
-5.00
1.10
5.35
8.48
11.11
13.48
15.46
16.77
17.17
16.67
15.53
14.22
13.14
12.55
12.51
12.86
13.40
14.00
14.58
15.14
15.59
15.64
14.89
12.94
9.62
5.20
0.23
-4.47
-8.24
-10.83
-12.43
-13.62
-15.07
-17.21
-20.12
-23.52
-26.99
-30.11
-32.60
-34.37
-35.59
-36.66
-38.12
-40.58
-44.48
-49.82
-56.00
-61.79
-65.67
-66.19
-62.46
-54.47
-43.06
-29.66
-15.85
-2.91
8.43
18.11
26.56
34.45
42.32
50.33
58.20
65.31
71.01
74.95
77.31
78.84
80.59
83.66
88.77
96.15
105.42
115.59
125.36
133.21
137.77
138.00
133.34
123.81
109.91
92.52
72.76
51.82
30.90
11.03
-6.99
-22.72
-36.09
-47.34
-56.84
-64.90
-71.66
-77.06
-80.88
-82.89
-83.05
-81.52
-78.76
-75.40
-72.06
-69.15
-66.79
-64.83
-62.92
-60.76
-58.26
-55.62
-53.25
-51.70
-51.41
-52.66
-55.49
-59.66
-64.54
-69.13
-72.08
-71.94
-67.67
-59.01
-46.77
-32.63
-18.58
-6.31
3.33
10.44
15.83
20.42
24.92
29.62
34.47
39.35
44.31
49.63
55.75
62.99
71.41
80.67
90.18
99.25
107.32
114.07
119.23
122.43
123.11
120.59
114.39
104.41
91.14
75.43
58.28
40.54
22.78
5.39
-11.31
-26.87
-40.75
-52.41
-61.46
-67.80
-71.77
-74.07
-75.70
-77.75
-81.07
-86.14
-92.82
-100.37
-107.59
-112.98
-115.11
-112.92
-106.03
-94.92
-80.82
-65.43
-50.42
-37.01
-25.70
-16.38
-8.58
-1.82
4.16
9.37
13.65
16.87
19.08
20.47
21.33
21.92
22.41
22.88
23.29
23.64
23.87
23.96
23.92
23.71
23.29
22.61
21.62
20.32
18.77
17.09
15.39
13.79
12.33
10.96
9.60
8.17
6.62
4.93
3.03
0.81
-1.94
-5.40
-9.66
-14.56
-19.78
-24.87
-29.44
-33.40
-36.95
-40.57
-44.88
-50.35
-57.04
-64.47
-71.53
-76.68
-78.35
-75.39
-67.56
-55.65
-41.27
-26.43
-12.88
-1.68
6.96
13.56
18.96
23.96
29.03
34.21
39.17
43.43
46.56
48.35
48.93
48.61
47.84
46.99
46.27
45.75
45.46
45.36
45.42
45.49
45.41
44.88
43.64
41.55
38.70
35.37
32.01
29.03
26.67
24.86
23.28
21.47
19.05
15.90
12.25
8.54
5.28
2.77
1.00
-0.35
-1.71
-3.51
-6.03
-9.35
-13.40
-17.96
-22.71
-27.32
-31.54
-35.32
-38.80
-42.40
-46.64
-51.98
-58.53
-65.81
-72.66
-77.44
-78.42
-74.46
-65.44
-52.48
-37.60
-23.06
-10.63
-1.09
5.80
10.86
14.98
18.71
22.19
25.26
27.82
29.88
31.56
33.00
34.16
34.90
35.06
34.68
34.03
33.50
33.46
34.05
35.07
36.15
36.85
36.86
36.04
34.40
32.10
29.38
26.60
24.12
22.23
20.98
20.13
19.26
17.90
15.80
12.98
9.73
6.47
3.60
1.34
-0.31
-1.60
-2.96
-4.86
-7.66
-11.46
-16.03
-20.89
-25.52
-29.55
-32.92
-35.89
-38.96
-42.68
-47.50
-53.54
-60.47
-67.41
-73.00
-75.67
-74.10
-67.67
-56.82
-42.97
-28.18
-14.46
-3.22
5.10
10.99
15.43
19.37
23.41
27.64
31.81
35.56
38.65
41.01
42.68
43.66
43.94
43.50
42.40
40.83
39.21
37.94
37.28
37.23
37.47
37.53
36.99
35.64
33.53
30.98
28.36
25.97
23.95
22.29
20.88
19.52
18.04
16.25
14.02
11.32
8.22
4.92
1.65
-1.45
-4.35
-7.23
-10.42
-14.24
-18.88
-24.26
-30.02
-35.74
-41.00
-45.65
-49.77
-53.73
-57.97
-63.00
-69.20
-76.76
-85.45
-94.47
-102.45
-107.67
-108.52
-104.10
-94.58
-81.16
-65.64
-49.74
-34.59
-20.54
-7.34
5.50
18.45
31.84
45.86
60.47
75.31
89.58
102.10
111.67
117.49
119.49
118.36
115.35
111.87
109.24
108.49
110.40
115.21
122.35
130.16
135.92
136.48
129.13
112.73
88.21
58.53
27.77
0.00
-21.88
-36.73
-45.08
-48.59
-49.28
-48.90
-48.52
-48.59
-49.04
-49.64
-50.18
-50.58
-50.93
-51.26
-51.50
-51.42
-50.79
-49.52
-47.74
-45.88
-44.42
-43.78
-44.14
-45.53
-47.94
-51.35
-55.75
-60.81
-65.73
-69.35
-70.33
-67.81
-61.72
-52.91
-42.88
-33.15
-24.82
-18.23
-13.05
-8.68
-4.52
-0.26
4.12
8.49
12.75
16.89
20.95
24.88
28.49
31.36
33.05
33.28
32.14
30.07
27.66
25.41
23.52
21.82
19.86
17.23
13.72
9.46
4.84
0.39
-3.50
-6.69
-9.43
-12.17
-15.48
-19.68
-24.78
-30.38
-35.93
-40.85
-44.89
-48.21
-51.28
-54.74
-59.18
-64.88
-71.75
-79.23
-86.34
-91.80
-94.27
-92.62
-86.35
-75.75
-61.95
-46.65
-31.72
-18.63
-8.10
0.00
6.42
12.05
17.53
23.01
28.17
32.50
35.63
37.49
38.31
38.56
38.67
38.92
39.42
40.11
40.85
41.57
42.21
42.73
43.06
43.09
42.66
41.59
39.81
37.33
34.34
31.06
27.68
24.35
21.03
17.63
14.05
10.17
5.92
1.31
-3.54
-8.37
-12.93
-16.97
-20.52
-23.85
-27.44
-31.89
-37.65
-44.93
-53.46
-62.51
-70.94
-77.22
-79.87
-77.71
-70.35
-58.34
-43.12
-26.61
-10.52
4.09
17.14
29.21
41.07
53.06
64.79
75.26
83.33
88.19
89.69
88.19
84.32
78.64
71.54
63.41
54.87
46.89
40.58
36.75
35.69
36.86
39.29
41.86
43.73
44.61
44.68
44.40
44.30
44.72
45.72
47.14
48.56
49.51
49.55
48.42
46.09
42.80
38.96
34.98
31.11
27.34
23.43
18.99
13.66
7.29
-0.05
-8.05
-16.36
-24.67
-32.84
-40.87
-48.91
-57.19
-65.86
-74.85
-83.70
-91.46
-96.79
-98.36
-95.28
-87.55
-76.14
-62.75
-49.20
-36.83
-26.24
-17.29
-9.44
-2.22
4.56
10.82
16.39
21.24
25.57
29.70
33.90
38.22
42.48
46.36
49.68
52.51
55.13
57.88
60.97
64.24
67.21
69.20
69.63
68.27
65.31
61.26
56.75
52.26
47.90
43.48
38.57
32.77
25.88
18.00
9.56
1.09
-6.88
-14.00
-20.24
-25.75
-30.84
-35.73
-40.45
-44.87
-48.71
-51.79
-54.14
-56.06
-58.04
-60.64
-64.29
-69.12
-74.88
-80.78
-85.57
-87.74
-85.88
-79.13
-67.68
-52.70
-36.17
-20.17
-6.32
4.61
12.74
18.69
23.15
26.57
29.11
30.76
31.57
31.74
31.60
31.49
31.55
31.74
31.91
31.88
31.63
31.27
30.99
30.91
30.98
30.95
30.46
29.16
26.89
23.74
20.05
16.25
12.81
9.94
7.57
5.36
2.88
-0.22
-4.01
-8.34
-12.92
-17.52
-22.10
-26.80
-31.87
-37.55
-44.00
-51.29
-59.36
-67.95
-76.39
-83.56
-87.94
-87.94
-82.54
-71.68
-56.53
-39.17
-21.99
-6.90
5.17
14.35
21.49
27.56
33.15
38.30
42.68
45.91
47.89
48.85
49.23
49.42
49.54
49.53
49.20
48.48
47.54
46.69
46.27
46.48
47.22
48.22
49.16
49.78
49.95
49.60
48.68
47.01
44.39
40.71
36.03
30.70
25.18
19.96
15.33
11.24
7.35
3.19
-1.65
-7.40
-13.94
-20.88
-27.69
-33.91
-39.28
-43.86
-48.04
-52.38
-57.41
-63.39
-70.05
-76.57
-81.65
-83.79
-81.79
-75.21
-64.57
-51.29
-37.23
-24.10
-12.95
-4.00
3.21
9.48
15.43
21.37
27.20
32.60
37.24
40.88
43.45
44.97
45.56
45.44
44.91
44.37
44.17
44.52
45.46
46.74
47.93
48.51
48.03
46.31
43.39
39.56
35.22
30.74
26.39
22.27
18.39
14.67
11.03
7.53
4.26
1.36
-1.14
-3.33
-5.42
-7.65
-10.17
-12.94
-15.76
-18.42
-20.85
-23.32
-26.35
-30.58
-36.49
-44.23
-53.50
-63.52
-73.06
-80.65
-84.75
-84.21
-78.62
-68.56
-55.59
-41.82
-29.29
-19.33
-12.24
-7.33
-3.38
0.80
5.91
11.99
18.63
25.09
30.67
34.85
37.36
38.28
37.96
37.02
36.19
36.08
37.01
38.99
41.63
44.28
46.11
46.20
43.69
37.99
29.06
17.46
4.29
-9.27
-22.44
-35.01
-47.32
-59.71
-72.06
-83.58
-93.04
-99.38
-102.23
-102.20
-100.62
-99.05
-98.75
-100.40
-104.14
-109.62
-116.17
-122.79
-128.07
-130.35
-128.07
-120.35
-107.42
-90.66
-72.20
-54.14
-37.91
-23.86
-11.61
-0.46
10.00
19.78
28.59
36.23
42.93
49.29
56.13
64.07
73.30
83.47
93.88
103.70
112.23
119.12
124.25
127.78
129.89
130.78
130.68
130.01
129.32
129.13
129.69
130.75
131.59
131.31
129.23
125.12
119.13
111.50
102.29
91.30
78.32
63.41
47.15
30.48
14.39
-0.44
-13.82
-25.91
-36.88
-46.70
-55.10
-61.75
-66.56
-69.90
-72.56
-75.53
-79.53
-84.65
-90.18
-94.72
-96.66
-94.77
-88.68
-79.04
-67.30
-55.18
-44.12
-34.89
-27.58
-21.80
-16.95
-12.63
-8.67
-5.07
-1.94
0.63
2.67
4.22
5.32
5.99
6.20
6.00
5.50
4.96
4.68
4.86
5.55
6.56
7.61
8.34
8.49
7.96
6.81
5.35
3.92
2.85
2.31
2.20
2.24
2.09
1.48
0.32
-1.36
-3.37
-5.57
-7.85
-10.20
-12.70
-15.39
-18.34
-21.53
-24.88
-28.24
-31.44
-34.42
-37.23
-40.10
-43.39
-47.43
-52.46
-58.46
-65.08
-71.49
-76.44
-78.46
-76.32
-69.47
-58.36
-44.37
-29.41
-15.27
-3.11
6.75
14.69
21.40
27.46
33.06
38.04
42.09
44.92
46.46
46.80
46.17
44.82
43.04
41.06
39.19
37.72
36.93
36.94
37.66
38.76
39.71
40.00
39.23
37.27
34.31
30.74
27.02
23.53
20.45
17.82
15.52
13.45
11.48
9.54
7.57
5.53
3.45
1.39
-0.55
-2.40
-4.37
-6.82
-10.13
-14.46
-19.65
-25.24
-30.64
-35.44
-39.56
-43.33
-47.39
-52.45
-59.08
-67.38
-76.89
-86.50
-94.58
-99.36
-99.30
-93.68
-82.84
-68.20
-51.96
-36.43
-23.35
-13.55
-6.78
-2.11
1.59
5.13
8.82
12.50
15.79
18.40
20.31
21.69
22.81
23.89
25.05
26.28
27.56
28.93
30.39
31.97
33.58
34.99
35.93
36.10
35.42
34.06
32.41
30.90
29.80
29.05
28.35
27.32
25.74
23.72
21.61
19.80
18.43
17.37
16.15
14.25
11.20
6.74
0.92
-5.97
-13.42
-20.88
-27.88
-34.25
-40.26
-46.50
-53.67
-62.14
-71.58
-80.85
-88.17
-91.66
-89.97
-82.73
-70.78
-55.89
-40.30
-26.10
-14.72
-6.63
-1.32
2.33
5.67
9.73
14.81
20.48
25.71
29.38
30.83
30.15
28.26
26.50
26.01
27.24
29.68
32.09
33.17
32.18
29.46
26.27
24.26
24.60
27.47
31.89
36.26
38.95
38.87
35.81
30.59
25.37
23.83
30.88
51.36
87.86
138.46
195.86
248.84
285.70
298.09
283.59
245.72
191.74
129.78
66.63
7.06
-45.69
-89.25
-122.03
-143.79
-156.09
-162.17
-166.03
-171.07
-179.00
-189.51
-200.53
-209.12
-212.53
-209.24
-199.38
-184.73
-167.98
-151.64
-137.07
-124.12
-111.42
-97.22
-80.32
-60.68
-39.39
-18.12
1.59
18.83
33.46
45.73
55.96
64.15
70.03
73.31
73.94
72.41
69.69
67.01
65.41
65.44
66.89
68.85
69.99
68.93
64.70
56.97
46.12
33.12
19.34
6.20
-5.08
-13.66
-19.32
-22.50
-24.21
-25.72
-28.16
-32.15
-37.60
-43.83
-49.74
-54.29
-56.87
-57.39
-56.45
-55.11
-54.63
-56.12
-60.15
-66.45
-73.83
-80.35
-83.77
-82.27
-75.02
-62.56
-46.56
-29.31
-12.97
1.07
12.36
21.21
28.32
34.30
39.55
44.21
48.34
52.05
55.43
58.54
61.35
63.74
65.63
66.99
67.89
68.42
68.58
68.34
67.59
66.21
64.18
61.59
58.65
55.62
52.75
50.27
48.28
46.76
45.56
44.36
42.84
40.70
37.87
34.48
30.88
27.44
24.35
21.54
18.62
15.09
10.54
4.94
-1.36
-7.75
-13.63
-18.65
-22.94
-27.03
-31.69
-37.56
-44.91
-53.33
-61.73
-68.46
-71.78
-70.34
-63.67
-52.39
-38.11
-22.94
-8.89
2.69
11.38
17.57
22.16
26.04
29.81
33.68
37.53
41.12
44.30
47.07
49.54
51.76
53.68
55.10
55.86
55.91
55.43
54.78
54.33
54.24
54.39
54.35
53.61
51.78
48.79
44.93
40.82
37.11
34.32
32.56
31.54
30.69
29.38
27.17
24.00
20.19
16.17
12.36
8.88
5.57
2.11
-1.78
-6.18
-10.96
-15.79
-20.33
-24.34
-27.79
-30.81
-33.75
-37.04
-41.14
-46.43
-53.01
-60.53
-68.08
-74.27
-77.57
-76.68
-71.09
-61.27
-48.63
-35.05
-22.33
-11.60
-3.11
3.60
9.36
14.85
20.33
25.68
30.56
34.71
38.05
40.69
42.80
44.43
45.55
46.08
46.02
45.56
45.00
44.65
44.69
45.07
45.54
45.71
45.24
43.94
41.83
39.11
36.17
33.35
30.90
28.86
27.02
25.09
22.78
19.98
16.74
13.30
9.94
6.88
4.20
1.83
-0.44
-2.88
-5.73
-9.11
-13.02
-17.24
-21.48
-25.42
-28.83
-31.76
-34.56
-37.85
-42.23
-48.05
-55.06
-62.27
-68.08
-70.74
-68.91
-62.28
-51.71
-39.00
-26.25
-15.16
-6.48
-0.04
4.98
9.53
14.20
19.12
24.06
28.64
32.66
36.03
38.82
41.10
42.84
44.00
44.56
44.56
44.18
43.71
43.39
43.31
43.34
43.11
42.16
40.18
37.10
33.20
29.01
25.05
21.66
18.87
16.44
13.96
11.07
7.59
3.61
-0.54
-4.43
-7.69
-10.17
-12.06
-13.79
-15.84
-18.55
-21.90
-25.58
-29.14
-32.24
-34.79
-36.98
-39.14
-41.71
-45.08
-49.57
-55.30
-61.97
-68.71
-74.13
-76.61
-74.86
-68.45
-58.06
-45.32
-32.19
-20.35
-10.68
-3.28
2.38
6.96
11.03
14.88
18.62
22.22
25.61
28.67
31.26
33.26
34.55
35.12
35.06
34.58
33.99
33.58
33.59
34.12
35.08
36.18
37.05
37.30
36.71
35.29
33.28
31.03
28.86
26.94
25.18
23.38
21.23
18.48
15.02
10.91
6.36
1.64
-2.91
-7.04
-10.56
-13.41
-15.67
-17.55
-19.33
-21.32
-23.68
-26.41
-29.32
-32.10
-34.42
-36.05
-37.05
-37.76
-38.84
-41.05
-45.02
-50.91
-58.23
-65.88
-72.37
-76.35
-77.09
-74.63
-69.72
-63.45
-56.80
-50.35
-44.23
-38.27
-32.24
-25.99
-19.56
-13.12
-6.81
-0.71
5.21
10.98
16.51
21.58
25.98
29.80
33.48
37.72
43.09
49.65
56.79
63.45
68.63
71.80
72.99
72.62
71.11
68.72
65.59
61.92
58.13
54.74
52.03
49.90
47.81
45.05
41.13
36.01
30.09
24.06
18.55
13.98
10.39
7.44
4.63
1.46
-2.39
-6.87
-11.63
-16.11
-19.77
-22.28
-23.60
-24.03
-24.14
-24.61
-26.07
-28.81
-32.57
-36.48
-39.17
-39.19
-35.50
-28.00
-17.54
-5.73
5.72
15.60
23.48
29.67
34.74
39.22
43.37
47.23
50.87
54.51
58.39
62.61
67.01
71.23
74.96
78.20
81.22
84.38
87.91
91.73
95.54
98.96
101.68
103.38
103.67
102.10
98.35
92.43
84.99
77.07
69.85
64.14
60.12
57.39
55.17
52.60
48.96
43.77
36.77
27.96
17.57
6.11
-5.77
-17.40
-28.16
-37.68
-45.87
-52.97
-59.47
-65.87
-72.46
-78.91
-84.23
-86.95
-85.55
-79.20
-68.10
-53.59
-37.70
-22.59
-9.91
-0.58
5.09
7.19
5.93
1.71
-4.71
-12.16
-19.16
-24.29
-26.67
-26.22
-23.63
-19.89
-15.88
-12.11
-8.75
-6.06
-4.56
-5.12
-8.62
-15.55
-25.71
-38.32
-52.26
-66.54
-80.42
-93.45
-105.37
-116.13
-125.87
-134.95
-143.74
-152.37
-160.47
-167.18
-171.47
-172.62
-170.47
-165.45
-158.20
-149.27
-138.94
-127.32
-114.69
-101.61
-88.85
-77.14
-66.92
-58.23
-50.89
-44.66
-39.37
-34.91
-31.16
-27.79
-24.14
-19.30
-12.38
-2.83
9.16
22.58
35.71
46.65
53.95
57.09
56.66
54.03
50.83
48.28
46.93
46.65
46.94
47.37
47.69
47.92
48.23
48.70
49.36
50.17
51.10
52.19
53.52
55.17
57.12
59.23
61.22
62.68
63.18
62.33
59.89
55.83
50.40
44.03
37.22
30.35
23.62
16.96
10.16
2.91
-5.00
-13.72
-23.27
-33.53
-44.25
-54.94
-64.98
-73.64
-80.31
-84.66
-86.76
-87.06
-86.14
-84.46
-82.26
-79.55
-76.26
-72.42
-68.14
-63.69
-59.40
-55.57
-52.45
-50.03
-47.98
-45.49
-41.43
-34.66
-24.52
-11.25
3.89
19.00
32.11
41.90
48.08
51.32
52.78
53.55
54.30
55.06
55.53
55.35
54.39
52.88
51.22
49.83
48.93
48.52
48.49
48.73
49.24
50.00
50.89
51.61
51.73
50.77
48.44
44.70
39.81
34.30
28.76
23.74
19.52
16.13
13.27
10.54
7.55
4.13
0.35
-3.57
-7.42
-11.10
-14.65
-18.18
-21.78
-25.47
-29.23
-33.08
-37.10
-41.48
-46.44
-52.08
-58.35
-64.94
-71.44
-77.38
-82.48
-86.82
-90.86
-95.38
-101.19
-108.80
-118.06
-127.96
-136.76
-142.27
-142.54
-136.45
-124.24
-107.46
-88.57
-70.13
-54.08
-41.24
-31.31
-23.32
-16.16
-9.13
-2.05
4.83
11.10
16.43
20.71
24.05
26.67
28.90
31.17
33.84
37.28
41.67
47.00
53.03
59.41
65.80
71.93
77.63
82.73
86.92
89.75
90.66
89.12
84.94
78.33
69.93
60.58
51.13
42.15
33.78
25.72
17.56
8.92
-0.21
-9.39
-17.88
-25.02
-30.59
-34.98
-38.96
-43.26
-48.10
-52.97
-56.96
-59.23
-59.56
-58.50
-57.24
-57.34
-60.34
-67.45
-79.28
-95.67
-115.80
-138.16
-160.72
-181.07
-196.62
-205.30
-206.32
-200.73
-191.30
-181.51
-173.81
-168.37
-162.95
-154.27
-140.10
-120.73
-99.00
-78.68
-62.26
-49.59
-38.14
-24.66
-7.03
14.55
37.85
59.94
78.71
93.77
106.10
117.06
127.11
135.32
139.73
138.58
131.52
120.18
107.76
97.75
92.51
92.46
96.22
101.54
106.49
110.12
112.57
114.37
115.77
116.23
114.48
109.08
99.18
84.97
67.53
48.47
29.40
11.69
-3.46
-14.84
-21.31
-22.11
-17.40
-8.50
2.34
12.59
20.33
24.73
26.18
25.89
25.19
25.00
25.58
26.65
27.69
28.31
28.46
28.39
28.49
29.05
30.10
31.46
32.84
34.02
34.89
35.37
35.33
34.48
32.52
29.21
24.62
19.07
13.06
7.03
1.24
-4.37
-9.94
-15.63
-21.38
-26.88
-31.67
-35.38
-37.91
-39.63
-41.38
-44.31
-49.48
-57.46
-67.86
-79.18
-88.96
-94.44
-93.35
-84.81
-69.63
-50.16
-29.47
-10.35
5.50
17.77
27.25
35.18
42.63
50.14
57.63
64.66
70.69
75.33
78.48
80.39
81.59
82.75
84.52
87.37
91.44
96.47
101.91
107.02
111.05
113.33
113.46
111.32
107.14
101.43
94.83
87.91
81.11
74.60
68.41
62.52
56.97
51.87
47.37
43.46
40.02
36.75
33.31
29.40
24.90
19.78
14.15
8.12
1.76
-4.95
-12.23
-20.44
-30.03
-41.35
-54.36
-68.25
-81.32
-91.27
-95.76
-93.24
-83.57
-68.19
-49.63
-30.75
-13.75
0.25
11.32
20.26
28.08
35.56
43.07
50.58
57.87
64.59
70.48
75.41
79.37
82.47
84.90
86.83
88.40
89.72
90.92
92.13
93.42
94.73
95.81
96.25
95.69
94.00
91.28
87.91
84.23
80.45
76.51
72.16
67.05
61.01
54.00
46.24
38.02
29.67
21.41
13.37
5.55
-2.12
-9.67
-17.02
-23.98
-30.33
-35.92
-40.80
-45.25
-49.70
-54.51
-59.79
-65.31
-70.51
-74.70
-77.37
-78.39
-78.10
-77.21
-76.65
-77.24
-79.54
-83.55
-88.61
-93.43
-96.28
-95.47
-89.85
-79.29
-64.82
-48.35
-32.12
-17.93
-6.71
1.59
7.79
12.95
17.98
23.33
29.03
34.73
39.95
44.28
47.48
49.56
50.68
51.09
51.04
50.75
50.39
50.08
49.92
49.91
49.97
49.89
49.46
48.54
47.12
45.32
43.33
41.29
39.21
37.05
34.72
32.18
29.48
26.74
24.09
21.64
19.44
17.39
15.35
13.13
10.60
7.78
4.80
1.84
-1.01
-3.80
-6.72
-10.01
-13.77
-17.90
-22.12
-26.14
-29.74
-32.88
-35.76
-38.68
-42.01
-46.08
-50.98
-56.42
-61.65
-65.40
-66.28
-63.09
-55.41
-43.82
-29.84
-15.53
-2.78
7.13
13.87
17.92
20.12
21.31
22.02
22.33
22.11
21.13
19.30
16.82
14.05
11.42
9.26
7.67
6.54
5.62
4.67
3.57
2.33
0.99
-0.42
-1.90
-3.49
-5.21
-7.05
-9.08
-11.40
-14.13
-17.32
-20.87
-24.55
-28.08
-31.29
-34.19
-36.85
-39.30
-41.32
-42.58
-42.78
-41.96
-40.58
-39.32
-38.71
-38.71
-38.65
-37.48
-34.22
-28.42
-20.32
-10.81
-1.00
8.12
15.90
22.25
27.73
33.35
40.38
49.92
62.36
77.12
92.63
106.75
117.57
124.17
127.03
127.85
128.86
131.79
136.92
142.79
146.54
145.12
136.44
120.32
98.44
73.57
48.50
25.04
3.77
-15.64
-33.79
-51.10
-67.60
-83.01
-96.92
-108.95
-118.67
-125.63
-129.39
-129.60
-126.14
-119.02
-108.43
-94.80
-78.96
-62.26
-46.44
-33.23
-23.61
-17.41
-13.16
-8.66
-1.92
7.92
20.14
32.70
43.12
49.53
51.52
50.36
48.43
48.45
52.34
60.69
72.70
86.63
100.46
112.27
120.51
123.92
121.66
113.43
99.68
81.53
60.38
37.44
13.51
-10.89
-35.09
-57.93
-77.91
-93.84
-105.54
-114.16
-121.65
-129.88
-139.60
-150.01
-159.07
-164.37
-164.19
-158.10
-147.12
-133.28
-118.92
-106.00
-95.71
-88.23
-82.94
-78.67
-74.15
-68.37
-60.77
-51.37
-40.76
-29.88
-19.89
-11.92
-6.81
-5.03
-6.52
-10.77
-16.99
-24.22
-31.58
-38.36
-43.89
-47.44
-48.02
-44.56
-36.18
-22.64
-4.73
15.82
36.57
55.06
69.43
78.80
83.46
84.62
84.02
83.47
84.33
87.28
92.13
97.97
103.47
107.37
108.82
107.58
103.91
98.36
91.34
83.01
73.29
62.17
49.96
37.46
25.88
16.47
10.13
7.10
6.97
8.76
11.25
13.19
13.46
11.21
5.94
-2.33
-13.01
-24.98
-36.86
-47.34
-55.65
-61.68
-65.99
-69.53
-73.23
-77.68
-83.01
-88.92
-94.89
-100.51
-105.60
-110.26
-114.68
-118.77
-121.95
-123.12
-120.92
-114.27
-102.94
-87.73
-70.38
-52.99
-37.40
-24.62
-14.82
-7.47
-1.86
2.61
6.20
8.96
10.89
12.13
13.02
13.97
15.36
17.36
19.96
23.06
26.59
30.66
35.44
40.93
46.73
51.89
55.16
55.30
51.62
44.30
34.32
23.26
12.79
4.18
-1.97
-5.89
-8.40
-10.60
-13.48
-17.60
-22.99
-29.21
-35.68
-41.85
-47.45
-52.51
-57.24
-62.07
-67.43
-73.75
-81.10
-88.97
-96.15
-100.84
-101.26
-96.29
-86.07
-72.07
-56.66
-42.28
-30.71
-22.55
-17.30
-13.85
-10.97
-7.84
-4.17
-0.17
3.70
7.02
9.52
11.22
12.37
13.32
14.39
15.77
17.49
19.38
21.18
22.70
23.96
25.17
26.60
28.38
30.35
32.11
33.43
34.56
36.25
39.22
43.53
48.15
51.66
53.50
54.81
58.09
65.55
77.16
89.79
98.42
98.69
89.33
72.82
53.96
37.08
23.97
13.62
3.76
-7.10
-18.68
-29.55
-38.77
-47.06
-56.66
-69.91
-87.54
-107.74
-126.67
-140.17
-145.50
-142.66
-134.07
-123.35
-113.60
-106.20
-100.59
-94.97
-87.47
-77.17
-64.41
-50.58
-37.39
-26.22
-17.72
-11.87
-8.07
-5.58
-3.68
-1.80
0.45
3.41
7.29
12.22
18.16
24.82
31.56
37.47
41.51
42.75
40.64
35.05
26.33
15.11
2.20
-11.57
-25.42
-38.71
-50.92
-61.76
-71.08
-78.88
-85.36
-90.95
-96.28
-102.09
-108.84
-116.50
-124.39
-131.46
-136.83
-140.23
-142.10
-143.36
-144.88
-147.13
-150.02
-153.19
-156.07
-158.02
-158.17
-155.42
-148.69
-137.50
-122.46
-105.40
-88.62
-74.03
-62.21
-52.26
-42.24
-29.97
-13.57
8.35
36.71
71.54
111.31
152.02
187.28
209.84
214.22
199.24
169.11
132.31
98.55
75.62
67.17
72.42
87.35
106.55
124.91
138.71
146.22
147.64
144.93
140.95
138.39
138.64
141.22
144.01
143.92
138.12
124.86
103.99
76.97
46.63
16.48
-10.06
-30.35
-43.12
-48.69
-48.75
-45.88
-42.95
-42.64
-46.74
-55.77
-68.67
-82.80
-94.56
-100.27
-97.36
-85.20
-65.35
-40.90
-15.46
8.02
27.99
44.40
58.21
70.63
82.60
94.46
106.14
117.33
127.75
137.25
145.62
152.60
157.78
160.74
161.27
159.48
155.74
150.60
144.52
137.80
130.60
123.05
115.27
107.27
98.93
89.87
79.71
68.21
55.54
42.39
29.70
18.39
8.89
1.09
-5.67
-12.26
-19.41
-27.49
-36.40
-45.71
-54.87
-63.42
-71.18
-78.29
-85.15
-92.29
-100.27
-109.43
-119.71
-130.42
-140.15
-146.93
-148.69
-144.00
-132.55
-115.47
-94.99
-73.80
-54.23
-37.70
-24.52
-14.12
-5.56
2.06
9.29
16.26
22.88
28.93
34.26
38.84
42.71
45.94
48.55
50.57
52.01
52.96
53.52
53.82
53.88
53.55
52.57
50.68
47.72
43.76
39.02
33.84
28.53
23.33
18.31
13.52
8.92
4.54
0.35
-3.72
-7.86
-12.44
-17.85
-24.37
-31.88
-39.65
-46.30
-50.11
-49.55
-43.86
-33.43
-19.74
-4.87
9.26
21.39
31.15
38.96
45.53
51.42
56.93
62.01
66.43
69.97
72.47
73.94
74.46
74.26
73.56
72.59
71.48
70.29
69.06
67.79
66.53
65.30
64.02
62.51
60.46
57.58
53.77
49.18
44.24
39.55
35.56
32.48
30.11
27.95
25.35
21.81
17.11
11.37
4.95
-1.69
-8.21
-14.41
-20.32
-26.08
-32.01
-38.44
-45.76
-54.11
-63.28
-72.40
-79.99
-84.32
-83.90
-78.09
-67.46
-53.62
-38.72
-24.76
-13.02
-3.93
2.88
8.08
12.40
16.29
19.91
23.24
26.09
28.27
29.61
30.01
29.50
28.37
26.99
25.87
25.46
26.04
27.69
30.26
33.41
36.73
39.77
42.14
43.62
44.15
43.80
42.76
41.17
39.11
36.56
33.50
30.02
26.48
23.35
21.21
20.41
20.93
22.30
23.70
24.23
23.17
20.17
15.28
8.78
0.93
-8.16
-18.57
-30.36
-43.30
-56.57
-68.78
-78.14
-82.92
-82.05
-75.54
-64.51
-50.93
-37.00
-24.53
-14.49
-6.95
-1.33
3.19
7.31
11.44
15.68
19.93
24.03
27.84
31.26
34.21
36.62
38.47
39.76
40.53
40.86
40.87
40.66
40.33
39.93
39.43
38.76
37.77
36.34
34.37
31.88
29.03
26.06
23.16
20.41
17.70
14.79
11.55
8.04
4.63
1.83
0.07
-0.57
-0.45
-0.28
-0.84
-2.63
-5.65
-9.47
-13.37
-16.77
-19.46
-21.63
-23.87
-26.84
-30.99
-36.39
-42.62
-48.78
-53.73
-56.31
-55.71
-51.69
-44.76
-35.96
-26.69
-18.30
-11.75
-7.48
-5.36
-4.86
-5.28
-5.96
-6.38
-6.29
-5.62
-4.44
-2.90
-1.15
0.68
2.51
4.29
5.99
7.58
9.02
10.28
11.26
11.85
11.96
11.51
10.47
8.92
7.03
5.02
3.14
1.54
0.27
-0.71
-1.53
-2.28
-2.96
-3.59
-4.18
-4.79
-5.62
-6.87
-8.74
-11.30
-14.51
-18.14
-21.88
-25.42
-28.55
-31.24
-33.67
-36.16
-39.18
-43.06
-47.86
-53.24
-58.33
-61.97
-62.98
-60.60
-54.77
-46.30
-36.55
-27.05
-18.95
-12.76
-8.36
-5.22
-2.76
-0.54
1.64
3.86
6.15
8.52
10.91
13.20
15.19
16.70
17.68
18.24
18.66
19.15
19.85
20.69
21.49
22.03
22.14
21.77
20.95
19.78
18.40
16.96
15.61
14.46
13.54
12.82
12.15
11.31
10.11
8.46
6.45
4.33
2.37
0.80
-0.37
-1.33
-2.44
-4.01
-6.20
-8.92
-11.88
-14.73
-17.22
-19.29
-21.13
-23.12
-25.68
-29.12
-33.47
-38.35
-42.99
-46.36
-47.48
-45.70
-40.98
-33.88
-25.45
-16.88
-9.16
-2.92
1.65
4.69
6.52
7.52
8.00
8.25
8.46
8.70
8.97
9.18
9.30
9.31
9.31
9.39
9.59
9.90
10.29
10.69
11.08
11.39
11.50
11.23
10.42
9.05
7.29
5.43
3.79
2.55
1.62
0.76
-0.31
-1.75
-3.47
-5.21
-6.68
-7.70
-8.31
-8.73
-9.29
-10.29
-11.81
-13.80
-16.01
-18.18
-20.10
-21.77
-23.34
-25.12
-27.41
-30.41
-34.10
-38.20
-42.13
-45.10
-46.25
-44.88
-40.65
-33.80
-25.18
-16.03
-7.62
-0.96
3.59
6.28
7.75
8.79
10.00
11.63
13.61
15.68
17.53
18.95
19.82
20.20
20.18
19.91
19.59
19.38
19.41
19.75
20.29
20.80
20.99
20.54
19.25
17.19
14.65
12.08
9.96
8.56
7.86
7.51
7.10
6.26
4.87
3.06
1.09
-0.76
-2.39
-3.84
-5.28
-6.85
-8.63
-10.61
-12.74
-14.91
-17.06
-19.13
-21.11
-23.07
-25.16
-27.64
-30.71
-34.42
-38.45
-42.14
-44.52
-44.67
-41.96
-36.44
-28.77
-20.10
-11.68
-4.50
0.93
4.66
7.04
8.61
9.81
10.91
12.01
13.07
14.03
14.86
15.62
16.36
17.15
17.97
18.72
19.26
19.47
19.34
18.99
18.61
18.38
18.33
18.38
18.35
18.06
17.46
16.63
15.72
14.88
14.14
13.46
12.77
12.00
11.18
10.35
9.51
8.56
7.36
5.77
3.80
1.58
-0.66
-2.70
-4.44
-5.92
-7.29
-8.73
-10.36
-12.21
-14.21
-16.21
-18.09
-19.80
-21.43
-23.20
-25.47
-28.58
-32.66
-37.46
-42.30
-46.10
-47.74
-46.38
-41.81
-34.50
-25.60
-16.46
-8.29
-1.91
2.46
5.10
6.57
7.56
8.66
10.17
12.13
14.31
16.37
17.99
18.99
19.37
19.23
18.80
18.29
17.90
17.79
18.04
18.59
19.24
19.70
19.66
18.93
17.54
15.72
13.81
12.16
10.99
10.40
10.28
10.45
10.66
10.65
10.27
9.49
8.43
7.27
6.16
5.18
4.31
3.50
2.67
1.73
0.61
-0.79
-2.52
-4.59
-6.90
-9.28
-11.65
-14.01
-16.58
-19.68
-23.60
-28.39
-33.77
-39.07
-43.34
-45.62
-45.13
-41.59
-35.30
-27.17
-18.41
-10.25
-3.56
1.28
4.47
6.49
7.91
9.17
10.45
11.75
13.01
14.20
15.32
16.39
17.42
18.34
19.05
19.45
19.54
19.37
19.11
18.93
18.96
19.16
19.34
19.19
18.47
17.09
15.19
13.04
11.00
9.24
7.80
6.56
5.35
4.08
2.78
1.55
0.49
-0.32
-0.85
-1.10
-1.12
-1.04
-1.10
-1.60
-2.83
-4.86
-7.57
-10.55
-13.36
-15.67
-17.38
-18.67
-19.88
-21.39
-23.49
-26.36
-29.94
-33.92
-37.68
-40.39
-41.16
-39.32
-34.76
-27.96
-19.95
-11.99
-5.16
-0.04
3.33
5.40
6.83
8.19
9.80
11.70
13.69
15.50
16.97
18.04
18.81
19.41
19.90
20.31
20.63
20.90
21.18
21.58
22.10
22.63
22.94
22.78
22.02
20.69
18.98
17.18
15.56
14.29
13.39
12.71
12.03
11.10
9.80
8.14
6.26
4.39
2.69
1.24
-0.06
-1.41
-2.97
-4.87
-7.15
-9.73
-12.46
-15.18
-17.70
-19.88
-21.67
-23.18
-24.69
-26.65
-29.43
-33.20
-37.67
-42.00
-45.02
-45.56
-42.88
-36.98
-28.62
-19.09
-9.83
-1.97
3.86
7.63
9.74
10.84
11.55
12.34
13.48
14.94
16.57
18.14
19.48
20.54
21.32
21.89
22.27
22.47
22.46
22.33
22.19
22.16
22.22
22.24
21.92
21.03
19.48
17.43
15.24
13.32
11.87
10.88
10.08
9.14
7.88
6.26
4.46
2.67
1.05
-0.41
-1.77
-3.15
-4.65
-6.30
-8.14
-10.20
-12.48
-14.93
-17.41
-19.67
-21.53
-22.94
-24.09
-25.43
-27.50
-30.74
-35.22
-40.47
-45.50
-48.99
-49.71
-46.93
-40.77
-32.11
-22.40
-13.16
-5.48
0.18
4.01
6.59
8.61
10.59
12.78
15.15
17.54
19.65
21.20
22.02
22.06
21.47
20.53
19.63
19.10
19.12
19.65
20.42
21.11
21.38
21.04
20.08
18.70
17.16
15.74
14.67
14.00
13.63
13.32
12.79
11.80
10.28
8.30
6.06
3.82
1.74
-0.15
-2.00
-4.01
-6.40
-9.26
-12.52
-15.97
-19.34
-22.39
-25.01
-27.22
-29.22
-31.30
-33.75
-36.67
-39.82
-42.57
-43.99
-43.17
-39.54
-33.17
-24.81
-15.65
-6.91
0.46
6.06
9.99
12.67
14.58
16.06
17.28
18.27
18.99
19.43
19.60
19.56
19.35
19.03
18.68
18.42
18.42
18.77
19.51
20.48
21.41
22.02
22.04
21.40
20.17
18.61
17.02
15.72
14.90
14.53
14.44
14.36
14.02
13.27
12.10
10.59
8.93
7.27
5.75
4.44
3.38
2.52
1.84
1.35
1.01
0.82
0.68
0.39
-0.40
-2.00
-4.59
-7.99
-11.58
-14.36
-14.98
-11.99
-4.13
9.34
28.13
50.73
74.45
95.94
111.92
120.00
119.10
109.47
92.45
69.99
44.33
17.80
-7.35
-29.17
-46.27
-58.07
-64.82
-67.41
-67.01
-64.62
-60.88
-56.05
-50.22
-43.50
-36.16
-28.63
-21.27
-14.30
-7.77
-1.62
4.14
9.33
13.63
16.70
18.32
18.34
16.71
13.46
8.86
3.46
-1.86
-6.15
-8.73
-9.51
-8.98
-8.07
-7.60
-8.07
-9.52
-11.66
-13.99
-15.96
-16.82
-15.59
-11.14
-2.53
10.52
27.18
45.53
62.87
76.70
85.57
89.60
90.26
89.44
88.45
87.30
84.87
79.82
71.59
60.97
49.75
39.83
32.26
26.94
22.98
19.42
15.80
12.10
8.46
4.78
0.79
-3.60
-7.98
-11.43
-13.15
-13.02
-11.99
-11.78
-14.04
-19.58
-27.94
-37.72
-47.27
-55.35
-61.44
-65.49
-67.66
-68.12
-66.97
-64.46
-61.06
-57.50
-54.76
-53.83
-55.61
-60.62
-68.79
-79.29
-90.56
-100.61
-107.45
-109.67
-106.87
-99.86
-90.44
-80.84
-72.94
-67.67
-64.68
-62.68
-60.14
-56.09
-50.41
-43.61
-36.04
-27.42
-17.16
-4.94
8.71
22.62
35.76
48.00
60.15
73.16
86.79
99.04
106.58
106.31
97.09
80.51
60.24
40.20
22.80
8.23
-4.89
-18.01
-31.32
-43.40
-51.96
-55.26
-53.15
-47.14
-39.54
-31.84
-23.55
-12.25
5.26
31.00
64.08
100.25
133.03
155.74
163.86
156.49
136.31
108.28
77.77
48.91
23.98
3.68
-12.14
-23.83
-31.84
-37.01
-40.88
-45.37
-52.08
-61.63
-73.17
-84.94
-95.07
-102.46
-106.94
-109.06
-109.48
-108.55
-106.62
-104.35
-103.03
-104.27
-109.30
-118.36
-130.52
-143.98
-156.49
-165.55
-168.58
-163.21
-147.88
-122.58
-89.20
-51.00
-11.67
25.76
59.29
87.70
109.97
125.15
132.86
133.89
130.47
125.52
121.44
119.06
117.50
115.00
109.94
101.30
88.48
71.03
48.81
22.62
-5.10
-30.45
-49.23
-58.65
-58.48
-51.12
-40.26
-29.50
-21.16
-16.19
-14.63
-15.96
-19.18
-22.65
-24.27
-21.91
-14.21
-1.03
16.66
37.13
58.42
78.54
95.58
107.92
114.45
114.91
110.04
101.30
90.36
78.56
66.84
55.70
45.51
36.59
29.18
23.36
18.97
15.63
12.64
9.02
3.66
-4.30
-14.93
-27.18
-38.95
-47.74
-51.62
-50.03
-44.04
-35.87
-27.94
-21.91
-18.23
-16.35
-15.48
-15.13
-15.33
-16.35
-18.16
-20.29
-21.99
-22.81
-22.98
-23.26
-24.43
-26.59
-29.05
-30.67
-30.64
-28.96
-26.31
-23.45
-20.65
-17.40
-12.88
-6.54
1.39
10.00
18.17
25.19
31.16
36.84
43.21
50.80
59.25
67.11
72.16
72.02
65.02
50.77
30.47
6.58
-17.80
-39.72
-56.94
-68.30
-73.74
-73.96
-70.13
-63.27
-53.91
-41.94
-26.80
-7.90
14.85
40.70
67.96
94.30
117.29
134.79
145.51
148.94
145.42
135.88
121.58
103.89
83.92
62.49
40.06
16.83
-6.89
-30.62
-53.50
-74.46
-92.46
-106.82
-117.44
-124.78
-129.60
-132.60
-134.29
-135.02
-135.15
-135.23
-135.84
-137.26
-139.19
-140.67
-140.37
-137.04
-129.91
-118.98
-104.80
-88.22
-69.99
-50.52
-29.97
-8.37
14.09
36.95
59.50
80.93
100.55
117.89
132.71
144.90
154.30
160.54
163.19
161.84
156.47
147.58
136.35
124.44
113.59
105.10
99.36
95.64
92.40
87.97
81.31
72.46
62.48
52.75
44.23
36.93
29.94
21.93
11.95
0.02
-12.74
-24.35
-32.63
-36.03
-33.95
-26.96
-16.24
-2.98
12.15
28.71
45.74
61.05
71.12
72.08
61.23
38.35
5.97
-31.47
-69.01
-102.30
-128.20
-144.65
-150.68
-146.76
-135.41
-121.29
-110.28
-107.33
-114.26
-128.55
-144.24
-154.37
-154.15
-142.82
-123.83
-103.07
-86.17
-76.28
-73.32
-74.56
-75.99
-73.64
-64.73
-48.16
-24.96
1.70
26.92
45.20
52.23
46.40
29.78
7.86
-12.06
-23.21
-21.80
-8.47
11.95
32.21
45.35
47.40
38.52
22.56
5.16
-8.64
-15.99
-16.51
-11.34
-2.13
9.81
23.64
38.94
55.44
72.84
90.72
108.20
123.81
135.68
142.07
142.02
135.75
124.72
111.31
98.60
90.46
91.30
105.25
134.36
176.81
225.96
271.54
302.77
312.03
297.39
262.72
215.62
164.41
115.59
72.81
37.24
8.52
-14.41
-32.88
-48.39
-62.27
-75.48
-88.30
-100.47
-111.53
-121.25
-129.85
-137.92
-146.11
-154.75
-163.55
-171.50
-176.96
-178.07
-173.27
-161.96
-144.80
-123.67
-101.20
-80.05
-62.33
-49.16
-40.71
-36.45
-35.45
-36.73
-39.45
-42.95
-46.76
-50.44
-53.50
-55.37
-55.48
-53.46
-49.24
-43.14
-35.81
-28.01
-20.48
-13.75
-8.13
-3.69
-0.29
2.39
4.73
7.13
9.84
13.04
16.75
20.92
25.42
29.96
34.28
38.07
41.14
43.41
44.89
45.56
45.40
44.38
42.55
40.12
37.33
34.36
31.12
27.29
22.48
16.42
9.05
0.46
-9.34
-20.55
-33.64
-49.16
-67.66
-89.37
-113.84
-139.42
-162.91
-179.80
-185.36
-176.50
-153.26
-119.31
-80.63
-43.12
-10.36
17.07
40.51
61.00
77.76
88.19
89.62
81.21
64.91
44.58
24.11
5.93
-8.83
-18.75
-20.77
-10.56
15.09
55.06
102.29
145.34
172.77
178.04
162.14
132.65
99.63
71.13
50.62
37.27
28.46
22.23
18.17
16.43
16.30
15.25
9.64
-3.71
-26.01
-55.85
-89.65
-122.75
-150.66
-169.99
-178.93
-177.40
-166.86
-149.74
-128.75
-106.11
-83.23
-60.73
-38.94
-18.44
-0.46
13.38
21.56
23.34
19.26
11.08
1.35
-7.43
-13.42
-15.98
-15.62
-13.84
-12.52
-13.60
-18.55
-27.99
-41.23
-55.98
-68.47
-74.14
-68.89
-50.53
-19.92
18.98
59.97
96.11
121.29
131.39
125.17
104.59
74.53
41.82
13.63
-4.23
-8.75
-0.29
17.63
39.41
58.82
70.48
71.18
60.57
41.21
17.66
-4.94
-22.31
-32.20
-34.66
-31.59
-25.75
-19.73
-15.30
-13.08
-12.57
-12.51
-11.49
-8.50
-3.44
2.99
9.51
14.85
18.00
18.05
14.23
6.14
-5.61
-19.06
-31.41
-40.51
-46.60
-53.11
-65.65
-89.51
-126.93
-175.29
-227.62
-274.92
-309.21
-325.76
-323.84
-305.86
-276.02
-239.12
-199.75
-161.95
-128.64
-101.12
-78.70
-59.05
-38.94
-15.28
13.85
48.61
87.53
127.74
165.79
198.51
223.88
241.65
253.30
261.26
267.61
272.51
273.52
265.81
244.00
204.60
148.01
79.05
5.38
-65.26
-127.66
-180.21
-223.99
-260.63
-290.32
-311.20
-320.59
-317.03
-301.89
-279.41
-255.14
-233.75
-217.36
-205.29
-195.09
-184.26
-171.59
-157.38
-142.88
-128.98
-115.45
-100.76
-82.85
-60.22
-32.50
-0.38
35.26
74.46
118.36
168.16
223.13
279.03
328.23
362.13
374.77
365.65
340.12
307.10
275.22
249.68
231.11
217.17
205.12
193.90
184.38
177.98
174.92
173.53
170.88
164.41
153.28
138.78
123.62
110.67
101.60
96.22
92.68
88.48
81.64
71.52
59.03
46.04
34.43
25.14
18.01
12.21
7.00
2.45
-0.59
-1.02
1.60
6.60
12.35
17.19
20.22
21.63
22.29
23.03
24.21
25.91
28.40
32.45
39.11
48.99
61.59
75.20
87.37
95.99
99.99
99.70
96.45
92.03
88.18
86.13
86.42
88.66
91.63
93.70
93.53
90.78
86.29
81.73
78.77
78.39
80.53
84.34
88.65
92.50
95.21
96.19
94.79
90.23
81.78
69.09
52.39
32.58
11.22
-9.63
-27.72
-41.08
-48.63
-50.86
-50.11
-50.18
-55.26
-68.33
-89.72
-116.65
-143.90
-165.47
-176.55
-174.97
-161.90
-141.65
-120.84
-107.12
-107.29
-125.06
-159.15
-202.50
-243.64
-270.00
-272.27
-248.07
-202.87
-147.80
-95.18
-54.04
-27.47
-13.15
-5.97
-1.20
3.64
8.95
14.55
21.20
30.81
45.23
64.55
86.07
104.76
115.40
115.05
104.64
88.75
73.72
65.02
65.15
72.92
84.23
94.01
98.21
95.12
85.63
72.35
58.18
44.85
32.33
18.90
2.13
-20.11
-48.85
-83.73
-123.11
-164.51
-205.04
-241.71
-271.70
-292.87
-304.29
-306.54
-301.60
-292.02
-279.92
-266.17
-250.33
-231.24
-207.99
-180.66
-150.14
-117.38
-82.34
-43.73
0.28
50.66
106.19
162.95
215.00
256.10
281.67
290.41
284.80
270.56
255.31
246.74
250.78
270.14
303.29
344.53
385.14
415.64
428.55
420.54
393.23
352.31
305.41
259.73
220.05
188.15
163.36
143.60
126.60
110.43
93.86
76.27
57.71
38.69
20.22
3.54
-10.01
-19.31
-23.88
-24.11
-21.45
-18.21
-17.06
-20.10
-28.23
-40.70
-55.46
-69.94
-81.93
-90.43
-95.60
-98.38
-99.68
-99.84
-98.54
-95.23
-89.74
-82.76
-75.82
-70.72
-68.85
-70.48
-74.66
-79.61
-83.41
-84.67
-82.91
-78.55
-72.57
-66.05
-59.79
-54.15
-49.18
-44.80
-41.04
-38.07
-36.03
-34.92
-34.47
-34.18
-33.50
-32.07
-29.87
-27.15
-24.37
-22.00
-20.42
-19.92
-20.69
-22.85
-26.41
-31.19
-36.84
-42.94
-49.10
-55.18
-61.24
-67.54
-74.18
-80.94
-87.25
-92.27
-95.28
-96.02
-94.87
-92.74
-90.69
-89.46
-89.13
-89.06
-88.11
-85.05
-79.00
-69.78
-57.98
-44.82
-31.83
-20.45
-11.67
-5.78
-2.38
-0.51
1.06
3.51
7.53
13.22
20.01
26.90
32.83
37.01
39.27
40.03
40.11
40.46
41.99
45.41
51.21
59.47
69.56
80.10
89.12
94.75
95.80
92.17
84.58
73.99
61.12
46.26
29.75
12.51
-3.76
-16.97
-25.49
-28.87
-28.06
-24.93
-21.40
-18.83
-17.79
-18.29
-20.13
-23.05
-26.79
-30.99
-35.09
-38.52
-40.80
-41.84
-41.83
-41.29
-40.79
-40.69
-41.08
-41.75
-42.35
-42.76
-43.17
-44.06
-45.89
-48.72
-52.00
-54.68
-55.70
-54.44
-50.97
-45.97
-40.21
-34.30
-28.46
-22.73
-17.25
-12.38
-8.57
-6.18
-5.26
-5.50
-6.40
-7.38
-7.83
-7.18
-4.89
-0.63
5.48
12.83
20.41
27.17
32.54
36.67
40.31
44.39
49.52
55.60
61.97
67.84
72.69
76.31
78.58
79.00
76.60
70.19
58.94
42.78
22.30
-1.74
-28.92
-59.13
-91.95
-125.73
-157.03
-181.24
-193.98
-192.80
-178.33
-154.18
-125.94
-99.39
-79.12
-67.37
-63.94
-66.73
-72.55
-77.97
-79.68
-74.89
-61.78
-40.07
-11.57
19.73
48.40
68.83
77.08
72.26
56.83
35.91
15.47
0.47
-6.45
-5.32
1.83
12.12
22.98
32.87
41.40
48.83
55.47
61.21
65.52
67.92
68.30
66.94
64.35
60.89
56.58
51.18
44.51
36.72
28.30
19.94
12.28
5.48
-0.82
-7.53
-16.03
-27.63
-43.22
-62.60
-84.18
-104.95
-121.14
-129.23
-127.23
-115.54
-97.06
-76.58
-59.91
-52.92
-60.60
-85.93
-128.46
-183.33
-241.54
-291.77
-323.72
-331.26
-314.15
-277.22
-227.70
-172.38
-115.96
-61.52
-11.81
29.78
59.75
76.30
80.91
78.43
75.43
77.42
86.78
102.25
120.04
136.03
147.55
154.21
157.31
158.68
159.48
159.74
158.48
154.57
147.47
137.72
126.77
116.47
108.33
103.01
100.08
98.31
96.18
92.43
86.41
78.15
68.04
56.50
43.77
30.11
16.05
2.71
-8.23
-14.97
-16.23
-11.88
-3.27
7.14
16.52
22.66
24.71
23.37
20.48
18.08
17.51
18.82
20.84
21.88
20.34
15.06
5.08
-10.39
-31.56
-56.99
-82.91
-103.62
-113.42
-109.35
-93.00
-70.23
-48.59
-33.73
-27.01
-25.51
-24.34
-19.72
-10.87
0.23
10.69
18.66
24.12
28.18
31.75
34.52
35.14
32.10
24.98
15.02
4.71
-3.32
-7.52
-8.06
-6.66
-5.78
-7.54
-12.96
-21.72
-32.54
-43.74
-53.95
-62.32
-68.63
-72.91
-75.22
-75.54
-73.77
-69.98
-64.58
-58.44
-52.91
-49.93
-51.97
-61.69
-81.32
-111.68
-151.35
-196.30
-240.37
-276.67
-299.37
-305.18
-293.87
-267.87
-231.12
-187.89
-142.16
-97.57
-57.45
-24.75
-1.51
11.89
17.13
17.59
17.25
19.34
25.24
34.37
44.78
54.27
61.30
65.30
66.49
65.35
62.16
56.87
49.30
39.38
27.36
13.70
-0.96
-15.83
-30.06
-42.66
-52.66
-59.42
-62.99
-64.28
-64.81
-66.22
-69.50
-74.56
-80.18
-84.47
-85.63
-82.64
-75.62
-65.74
-54.79
-44.54
-36.03
-29.26
-23.10
-15.74
-5.32
9.43
28.74
51.84
77.21
103.07
127.85
150.34
169.79
185.66
197.65
205.52
209.28
209.24
206.15
201.09
195.31
189.82
185.14
180.95
176.15
169.22
158.78
144.21
125.98
105.55
84.94
66.01
49.95
37.04
26.75
18.11
10.11
1.95
-6.80
-16.22
-26.12
-36.13
-45.86
-54.93
-63.17
-70.68
-77.85
-85.24
-93.44
-102.63
-112.37
-121.53
-128.39
-131.18
-128.50
-119.91
-106.01
-88.29
-68.81
-49.48
-31.78
-16.34
-3.03
8.84
20.13
31.44
42.87
53.98
64.01
72.19
78.09
81.74
83.66
84.57
85.20
86.05
87.23
88.55
89.65
90.17
89.87
88.66
86.58
83.64
79.80
74.98
69.17
62.50
55.30
47.94
40.71
33.73
26.82
19.65
11.82
2.99
-6.97
-17.87
-29.16
-39.86
-48.66
-54.16
-55.20
-51.23
-42.49
-30.07
-15.53
-0.49
13.72
26.33
37.13
46.31
54.31
61.54
68.25
74.41
79.79
84.04
86.93
88.49
88.99
88.92
88.71
88.65
88.82
89.10
89.25
89.05
88.27
86.67
84.04
80.22
75.17
68.97
61.87
54.19
46.28
38.38
30.65
23.13
15.79
8.62
1.66
-5.12
-11.87
-18.95
-26.92
-36.26
-47.10
-58.80
-69.99
-78.75
-83.27
-82.42
-76.19
-65.64
-52.55
-38.72
-25.49
-13.43
-2.41
7.99
18.13
28.07
37.53
46.09
53.39
59.34
64.11
68.05
71.60
75.11
78.83
82.81
87.09
91.55
95.98
100.09
103.49
105.86
106.99
106.87
105.72
103.86
101.61
99.18
96.64
93.94
90.95
87.47
83.31
78.27
72.16
64.84
56.35
46.90
36.89
26.79
17.04
7.84
-0.91
-9.58
-18.66
-28.49
-39.02
-49.60
-59.06
-65.96
-69.06
-67.71
-62.15
-53.45
-43.23
-33.16
-24.59
-18.15
-13.84
-11.06
-9.02
-6.87
-3.97
-0.02
4.95
10.57
16.26
21.32
25.22
27.63
28.57
28.36
27.47
26.36
25.33
24.41
23.39
21.89
19.50
15.93
11.06
4.99
-1.98
-9.50
-17.19
-24.74
-31.89
-38.44
-44.29
-49.35
-53.66
-57.38
-60.83
-64.40
-68.52
-73.45
-79.23
-85.66
-92.34
-98.95
-105.34
-111.72
-118.48
-126.00
-134.31
-142.82
-150.34
-155.32
-156.26
-152.16
-142.70
-128.31
-110.00
-89.08
-66.91
-44.70
-23.36
-3.41
15.09
32.40
48.97
65.15
81.02
96.40
110.95
124.34
136.37
147.00
156.17
163.73
169.34
172.68
173.59
172.25
169.23
165.31
161.17
157.25
153.60
150.00
146.13
141.72
136.68
131.06
124.94
118.36
111.33
103.82
95.91
87.75
79.57
71.59
63.98
56.87
50.29
44.23
38.56
33.09
27.64
22.08
16.40
10.73
5.24
0.03
-4.88
-9.41
-13.30
-16.01
-16.81
-15.07
-10.65
-4.17
3.05
9.34
13.34
14.47
13.22
10.93
9.21
9.44
12.25
17.43
24.15
31.34
38.01
43.46
47.36
49.51
49.86
48.29
44.78
39.39
32.37
24.13
15.20
5.98
-3.33
-12.77
-22.46
-32.40
-42.28
-51.54
-59.56
-65.90
-70.54
-73.75
-75.92
-77.35
-78.06
-77.89
-76.68
-74.39
-71.12
-66.89
-61.64
-55.22
-47.63
-39.27
-31.01
-24.03
-19.35
-17.27
-17.09
-17.02
-14.75
-8.17
3.77
20.55
39.99
58.87
73.83
82.44
83.77
78.44
68.16
55.06
41.05
27.55
15.57
5.81
-1.14
-4.92
-5.48
-3.20
1.08
6.40
11.90
17.12
21.98
26.73
31.68
36.98
42.53
48.01
53.02
57.23
60.50
62.90
64.65
65.98
67.04
67.76
67.81
66.60
63.48
57.96
49.97
39.96
28.88
17.85
7.87
-0.60
-7.72
-14.16
-20.94
-29.05
-39.21
-51.64
-65.92
-80.96
-95.17
-106.80
-114.34
-117.00
-114.91
-109.07
-101.00
-92.32
-84.41
-78.17
-73.99
-71.83
-71.34
-71.89
-72.75
-73.14
-72.40
-70.14
-66.23
-60.92
-54.70
-48.25
-42.22
-37.18
-33.45
-31.07
-29.83
-29.39
-29.32
-29.26
-28.96
-28.29
-27.28
-26.04
-24.78
-23.78
-23.35
-23.86
-25.59
-28.74
-33.21
-38.65
-44.43
-49.75
-53.90
-56.47
-57.48
-57.39
-56.99
-57.31
-59.32
-63.75
-70.76
-79.77
-89.36
-97.53
-102.20
-101.91
-96.37
-86.65
-74.79
-63.10
-53.40
-46.54
-42.40
-40.21
-39.13
-38.56
-38.30
-38.42
-39.03
-40.12
-41.53
-43.02
-44.42
-45.77
-47.39
-49.82
-53.67
-59.43
-67.16
-76.40
-86.12
-94.98
-101.80
-106.04
-108.33
-110.60
-115.94
-128.04
-150.38
-185.23
-232.60
-289.71
-350.96
-408.93
-456.00
-486.25
-496.90
-488.68
-465.12
-431.09
-391.24
-349.00
-306.46
-264.71
-224.34
-185.78
-149.17
-114.22
-80.16
-46.06
-11.09
25.12
62.40
100.09
137.06
171.83
202.64
227.75
245.87
256.50
260.05
257.60
250.40
239.41
225.25
208.54
190.28
172.01
155.61
142.61
133.64
128.18
124.94
122.50
119.95
117.20
114.88
113.81
114.56
117.21
121.42
126.63
132.42
138.45
144.32
149.38
152.57
152.66
148.67
140.41
128.71
115.11
101.29
88.43
77.06
67.19
58.74
51.71
46.11
41.59
37.38
32.41
25.91
17.80
8.84
0.18
-7.30
-13.45
-18.82
-24.25
-30.29
-36.91
-43.57
-49.59
-54.45
-57.98
-60.24
-61.44
-61.77
-61.24
-59.77
-57.09
-52.90
-46.95
-39.16
-29.79
-19.38
-8.66
1.64
10.89
18.74
25.08
30.00
33.69
36.35
38.11
39.09
39.36
38.99
37.95
36.08
33.02
28.29
21.59
13.11
3.73
-5.03
-11.54
-14.63
-14.05
-10.58
-5.67
-0.70
3.38
6.32
8.31
9.73
10.87
11.93
13.03
14.26
15.68
17.21
18.59
19.49
19.61
18.84
17.26
15.19
12.98
10.95
9.32
8.21
7.65
7.73
8.56
10.32
13.16
17.08
21.74
26.51
30.54
33.00
33.27
31.12
26.77
20.84
14.13
7.46
1.37
-3.96
-8.74
-13.38
-18.21
-23.22
-27.94
-31.44
-32.57
-30.31
-24.12
-14.29
-1.92
11.23
23.32
32.95
39.71
44.23
47.85
52.05
57.83
65.32
73.83
82.22
89.32
94.27
96.69
96.65
94.62
91.37
87.89
85.23
84.27
85.51
88.96
94.05
99.91
105.62
110.46
114.10
116.62
118.28
119.35
119.95
120.01
119.42
118.27
116.92
115.99
116.18
117.98
121.54
126.64
132.86
139.71
146.59
152.63
156.49
156.44
150.76
138.23
118.56
92.42
61.02
25.77
-11.90
-50.33
-87.34
-120.10
-145.64
-161.69
-167.56
-164.41
-154.88
-142.00
-128.23
-114.87
-102.18
-90.01
-78.32
-67.55
-58.40
-51.46
-46.84
-44.00
-41.92
-39.54
-36.21
-32.01
-27.82
-24.93
-24.51
-27.19
-32.81
-40.73
-50.30
-61.33
-74.27
-90.14
-110.19
-135.69
-167.86
-207.56
-254.72
-307.35
-361.02
-408.94
-443.53
-458.73
-451.92
-424.90
-383.11
-333.61
-282.99
-235.88
-194.79
-160.62
-133.44
-112.73
-97.31
-84.98
-72.78
-57.80
-38.29
-14.63
10.59
33.58
51.07
61.76
66.84
69.17
71.91
77.22
85.75
97.11
110.56
125.66
142.10
159.40
176.47
191.66
203.32
210.32
212.38
210.03
204.28
196.37
187.50
178.83
171.27
165.36
161.20
158.54
156.85
155.53
154.07
152.14
149.66
146.80
143.91
141.37
139.43
138.08
137.01
135.77
134.03
131.68
128.92
126.05
123.26
120.37
116.73
111.52
104.02
93.98
81.84
68.51
55.08
42.38
30.72
19.92
9.52
-1.00
-12.06
-23.90
-36.63
-50.01
-63.45
-75.84
-85.75
-91.79
-93.01
-89.33
-81.51
-70.96
-59.35
-48.16
-38.49
-30.97
-25.77
-22.68
-21.23
-20.76
-20.58
-20.17
-19.11
-17.21
-14.47
-11.14
-7.77
-5.18
-4.16
-5.27
-8.52
-13.28
-18.54
-23.26
-26.80
-29.01
-30.19
-30.77
-31.07
-31.30
-31.64
-32.45
-34.26
-37.73
-43.37
-51.22
-60.67
-70.54
-79.30
-85.53
-88.44
-88.24
-86.16
-84.12
-84.20
-88.05
-96.45
-109.14
-124.89
-141.84
-157.76
-170.49
-178.36
-180.57
-177.46
-170.52
-162.02
-154.46
-149.96
-149.91
-154.92
-165.09
-180.28
-200.19
-224.06
-250.10
-275.26
-295.57
-307.05
-307.04
